timestamp: ADC HeartRate4sAverage HeartRate30sAverage HRV8sAverage
1477480354.493:   1016 101  13  627
1477480354.510:   1009 101  13  627
1477480354.511:   1040 101  13  627
1477480354.511:   1082 101  13  627
1477480354.511:   1097 101  13  627
1477480354.511:   1080 101  13  627
1477480354.512:   1059 101  13  627
1477480354.512:   1057 101  13  627
1477480354.512:   1071 101  13  627
1477480354.512:   1081 101  13  627
1477480354.513:   1074 101  13  627
1477480354.513:   1045 101  13  627
1477480354.513:   1000 101  13  627
1477480354.513:    946 101  13  627
1477480354.513:    904 101  13  627
1477480354.514:    892 101  13  627
1477480354.514:    909 101  13  627
1477480354.515:    921 101  13  627
1477480354.515:    900 101  13  627
1477480354.515:    855 101  13  627
1477480354.515:    824 101  13  627
1477480354.515:    830 101  13  627
1477480354.515:    851 101  13  627
1477480354.516:    848 101  13  627
1477480354.516:    813 101  13  627
1477480354.516:    783 101  13  627
1477480354.516:    790 101  13  627
1477480354.516:    836 101  13  627
1477480354.516:    885 101  13  627
1477480354.517:    911 101  13  627
1477480354.517:    920 101  13  627
1477480354.517:    935 101  13  627
1477480354.517:    967 101  13  627
1477480354.517:   1003 101  13  627
1477480354.517:   1027 101  13  627
1477480354.517:   1036 101  13  627
1477480354.518:   1037 101  13  627
1477480354.518:   1044 101  13  627
1477480354.518:   1056 101  13  627
1477480354.518:   1064 101  13  627
1477480354.518:   1055 101  13  627
1477480354.518:   1024 101  13  627
1477480354.519:    984 101  13  627
1477480354.519:    955 101  13  627
1477480354.519:    948 101  13  627
1477480354.519:    952 101  13  627
1477480354.519:    945 101  13  627
1477480354.519:    918 101  13  627
1477480354.519:    889 101  13  627
1477480354.520:    882 101  13  627
1477480354.520:    899 101  13  627
1477480354.520:    913 101  13  627
1477480354.520:    895 101  13  627
1477480354.520:    849 101  13  627
1477480354.520:    810 101  13  627
1477480354.520:    800 101  13  627
1477480354.521:    811 101  13  627
1477480354.521:    822 101  13  627
1477480354.521:    825 101  13  627
1477480354.521:    836 101  13  627
1477480354.521:    862 101  13  627
1477480354.527:    888 101  13  627
1477480354.527:    894 101  13  627
1477480354.527:    889 101  13  627
1477480354.528:    898 101  13  627
1477480354.528:    928 101  13  627
1477480354.528:    958 101  13  627
1477480354.528:    954 101  13  627
1477480354.529:    909 101  13  627
1477480354.541:    854 101  13  627
1477480354.541:    821 101  13  627
1477480354.542:    812 101  13  627
1477480354.542:    800 101  13  627
1477480354.542:    763 101  13  627
1477480354.543:    711 101  13  627
1477480354.543:    676 101  13  627
1477480354.543:    679 101  13  627
1477480354.543:    716 101  13  627
1477480354.544:    761 101  13  627
1477480354.544:    799 101  13  627
1477480354.544:    826 101  13  627
1477480354.544:    852 101  13  627
1477480354.544:    873 101  13  627
1477480354.545:    876 101  13  627
1477480354.545:    851 101  13  627
1477480354.546:    805 101  13  627
1477480354.546:    754 101  13  627
1477480354.546:    713 101  13  627
1477480354.546:    686 101  13  627
1477480354.547:    660 101  13  627
1477480354.547:    624 101  13  627
1477480354.547:    569 101  13  627
1477480354.548:    507 101  13  627
1477480354.548:    459 101  13  627
1477480354.549:    442 101  13  627
1477480354.549:    446 101  13  627
1477480354.549:    442 101  13  627
1477480354.561:    411 101  13  627
1477480354.562:    370 101  13  627
1477480354.562:    349 101  13  627
1477480354.562:    352 101  13  627
1477480354.562:    349 101  13  627
1477480354.563:    311 101  13  627
1477480354.563:    251 101  13  627
1477480354.563:    212 101  13  627
1477480354.563:    213 101  13  627
1477480354.563:    227 101  13  627
1477480354.564:    214 101  13  627
1477480354.564:    170 101  13  627
1477480354.565:    123 106  14  581
1477480354.565:     93 106  14  581
1477480354.565:     64 106  14  581
1477480354.565:     12 106  14  581
1477480354.566:    -58 106  14  581
1477480354.566:   -120 106  14  581
1477480354.566:   -152 106  14  581
1477480354.566:   -159 106  14  581
1477480354.566:   -162 106  14  581
1477480354.567:   -163 106  14  581
1477480354.567:   -150 106  14  581
1477480354.567:   -118 106  14  581
1477480354.567:    -75 106  14  581
1477480354.567:    -36 106  14  581
1477480354.568:     -3 106  14  581
1477480354.568:     25 106  14  581
1477480354.568:     50 106  14  581
1477480354.569:     74 106  14  581
1477480354.569:    105 106  14  581
1477480354.569:    144 106  14  581
1477480354.569:    171 106  14  581
1477480354.570:    163 106  14  581
1477480354.570:    116 106  14  581
1477480354.570:     54 106  14  581
1477480354.570:      9 106  14  581
1477480354.571:     -6 106  14  581
1477480354.571:    -17 106  14  581
1477480354.571:    -46 106  14  581
1477480354.571:    -91 106  14  581
1477480354.572:   -113 106  14  581
1477480354.579:    -88 106  14  581
1477480354.579:    -36 106  14  581
1477480354.591:    -18 106  14  581
1477480354.592:    -85 106  14  581
1477480354.592:   -231 106  14  581
1477480354.593:   -425 106  14  581
1477480354.593:   -660 106  14  581
1477480354.593:   -975 106  14  581
1477480354.593:  -1392 106  14  581
1477480354.593:  -1856 106  14  581
1477480354.593:  -2262 106  14  581
1477480354.594:  -2542 106  14  581
1477480354.594:  -2703 106  14  581
1477480354.594:  -2758 106  14  581
1477480354.596:  -2654 106  14  581
1477480354.596:  -2293 106  14  581
1477480354.600:  -1651 106  14  581
1477480354.601:   -840 106  14  581
1477480354.610:    -37 106  14  581
1477480354.610:    659 106  14  581
1477480354.610:   1288 106  14  581
1477480354.611:   1956 106  14  581
1477480354.611:   2714 106  14  581
1477480354.614:   3501 106  14  581
1477480354.615:   4189 106  14  581
1477480354.617:   4674 106  14  581
1477480354.618:   4946 106  14  581
1477480354.620:   5073 106  14  581
1477480354.621:   5129 106  14  581
1477480354.624:   5128 106  14  581
1477480354.625:   5015 106  14  581
1477480354.628:   4731 106  14  581
1477480354.647:   4277 106  14  581
1477480354.648:   3712 106  14  581
1477480354.649:   3108 106  14  581
1477480354.651:   2528 106  14  581
1477480354.651:   2022 106  14  581
1477480354.652:   1637 106  14  581
1477480354.653:   1379 106  14  581
1477480354.653:   1204 106  14  581
1477480354.654:   1056 106  14  581
1477480354.655:    922 106  14  581
1477480354.655:    834 106  14  581
1477480354.656:    815 106  14  581
1477480354.657:    829 106  14  581
1477480354.657:    811 106  14  581
1477480354.659:    723 106  14  581
1477480354.660:    579 106  14  581
1477480354.677:    426 106  14  581
1477480354.678:    304 106  14  581
1477480354.678:    229 106  14  581
1477480354.680:    198 106  14  581
1477480354.681:    200 106  14  581
1477480354.681:    217 106  14  581
1477480354.682:    227 106  14  581
1477480354.682:    210 106  14  581
1477480354.683:    154 106  14  581
1477480354.684:     63 106  14  581
1477480354.684:    -37 106  14  581
1477480354.685:   -108 106  14  581
1477480354.698:   -130 106  14  581
1477480354.698:   -112 106  14  581
1477480354.698:    -89 106  14  581
1477480354.698:    -84 106  14  581
1477480354.699:    -97 106  14  581
1477480354.699:   -117 106  14  581
1477480354.699:   -144 106  14  581
1477480354.701:   -189 106  14  581
1477480354.701:   -252 106  14  581
1477480354.704:   -318 106  14  581
1477480354.706:   -367 106  14  581
1477480354.707:   -387 106  14  581
1477480354.716:   -388 106  14  581
1477480354.717:   -384 106  14  581
1477480354.718:   -391 106  14  581
1477480354.718:   -416 106  14  581
1477480354.718:   -452 106  14  581
1477480354.719:   -476 106  14  581
1477480354.721:   -465 106  14  581
1477480354.723:   -420 106  14  581
1477480354.735:   -367 106  14  581
1477480354.735:   -338 106  14  581
1477480354.735:   -331 106  14  581
1477480354.735:   -318 106  14  581
1477480354.735:   -277 106  14  581
1477480354.736:   -221 106  14  581
1477480354.736:   -180 106  14  581
1477480354.737:   -173 106  14  581
1477480354.742:   -188 106  14  581
1477480354.742:   -205 106  14  581
1477480354.743:   -212 106  14  581
1477480354.750:   -210 106  14  581
1477480354.751:   -200 106  14  581
1477480354.754:   -178 106  14  581
1477480354.770:   -150 106  14  581
1477480354.772:   -129 106  14  581
1477480354.775:   -125 106  14  581
1477480354.776:   -131 106  14  581
1477480354.776:   -132 106  14  581
1477480354.777:   -124 106  14  581
1477480354.788:   -120 106  14  581
1477480354.789:   -133 106  14  581
1477480354.790:   -162 106  14  581
1477480354.790:   -193 106  14  581
1477480354.790:   -219 106  14  581
1477480354.791:   -245 106  14  581
1477480354.791:   -275 106  14  581
1477480354.792:   -305 106  14  581
1477480354.792:   -320 106  14  581
1477480354.792:   -317 106  14  581
1477480354.793:   -310 106  14  581
1477480354.793:   -318 106  14  581
1477480354.793:   -345 106  14  581
1477480354.794:   -370 106  14  581
1477480354.796:   -369 106  14  581
1477480354.796:   -350 106  14  581
1477480354.806:   -350 106  14  581
1477480354.807:   -397 106  14  581
1477480354.808:   -480 106  14  581
1477480354.808:   -554 106  14  581
1477480354.809:   -584 106  14  581
1477480354.810:   -580 106  14  581
1477480354.810:   -580 106  14  581
1477480354.811:   -607 106  14  581
1477480354.811:   -648 106  14  581
1477480354.815:   -677 106  14  581
1477480354.824:   -684 106  14  581
1477480354.825:   -685 106  14  581
1477480354.825:   -698 106  14  581
1477480354.828:   -725 106  14  581
1477480354.828:   -763 106  14  581
1477480354.829:   -805 106  14  581
1477480354.831:   -851 106  14  581
1477480354.831:   -889 106  14  581
1477480354.831:   -911 106  14  581
1477480354.834:   -922 106  14  581
1477480354.834:   -943 106  14  581
1477480354.836:   -988 106  14  581
1477480354.836:  -1043 106  14  581
1477480354.842:  -1074 106  14  581
1477480354.851:  -1065 106  14  581
1477480354.851:  -1034 106  14  581
1477480354.851:  -1016 106  14  581
1477480354.851:  -1023 106  14  581
1477480354.851:  -1038 106  14  581
1477480354.851:  -1038 106  14  581
1477480354.853:  -1017 106  14  581
1477480354.855:   -994 106  14  581
1477480354.858:   -991 106  14  581
1477480354.861:  -1011 106  14  581
1477480354.870:  -1039 106  14  581
1477480354.999:  -1053 106  14  581
1477480355.010:  -1040 106  14  581
1477480355.011:  -1014 106  14  581
1477480355.011:   -995 106  14  581
1477480355.011:   -994 106  14  581
1477480355.011:   -999 106  14  581
1477480355.011:   -989 106  14  581
1477480355.011:   -963 106  14  581
1477480355.011:   -940 106  14  581
1477480355.011:   -936 106  14  581
1477480355.012:   -940 106  14  581
1477480355.012:   -926 106  14  581
1477480355.012:   -885 106  14  581
1477480355.012:   -841 106  14  581
1477480355.012:   -827 106  14  581
1477480355.012:   -849 106  14  581
1477480355.012:   -880 106  14  581
1477480355.012:   -892 106  14  581
1477480355.013:   -878 106  14  581
1477480355.013:   -862 106  14  581
1477480355.013:   -859 106  14  581
1477480355.013:   -867 106  14  581
1477480355.013:   -863 106  14  581
1477480355.013:   -827 106  14  581
1477480355.013:   -760 106  14  581
1477480355.013:   -690 106  14  581
1477480355.013:   -648 106  14  581
1477480355.014:   -643 106  14  581
1477480355.014:   -650 106  14  581
1477480355.014:   -645 106  14  581
1477480355.014:   -619 106  14  581
1477480355.014:   -586 106  14  581
1477480355.015:   -552 106  14  581
1477480355.015:   -513 106  14  581
1477480355.015:   -461 106  14  581
1477480355.015:   -404 106  14  581
1477480355.015:   -361 106  14  581
1477480355.015:   -341 106  14  581
1477480355.015:   -332 106  14  581
1477480355.016:   -318 106  14  581
1477480355.016:   -300 106  14  581
1477480355.016:   -288 106  14  581
1477480355.016:   -290 106  14  581
1477480355.016:   -301 106  14  581
1477480355.016:   -311 106  14  581
1477480355.016:   -309 106  14  581
1477480355.017:   -285 106  14  581
1477480355.017:   -242 106  14  581
1477480355.017:   -197 106  14  581
1477480355.017:   -174 106  14  581
1477480355.017:   -181 106  14  581
1477480355.017:   -194 106  14  581
1477480355.018:   -176 106  14  581
1477480355.018:   -119 106  14  581
1477480355.018:    -56 106  14  581
1477480355.018:    -27 106  14  581
1477480355.018:    -36 106  14  581
1477480355.018:    -56 106  14  581
1477480355.018:    -53 106  14  581
1477480355.019:    -23 106  14  581
1477480355.019:     14 106  14  581
1477480355.019:     41 106  14  581
1477480355.019:     56 106  14  581
1477480355.019:     62 106  14  581
1477480355.019:     58 106  14  581
1477480355.019:     48 106  14  581
1477480355.020:     42 106  14  581
1477480355.020:     52 106  14  581
1477480355.020:     68 106  14  581
1477480355.020:     67 106  14  581
1477480355.020:     33 106  14  581
1477480355.020:    -17 106  14  581
1477480355.021:    -47 106  14  581
1477480355.021:    -38 106  14  581
1477480355.021:     -6 106  14  581
1477480355.021:     14 106  14  581
1477480355.021:     10 106  14  581
1477480355.021:     -3 106  14  581
1477480355.021:     -4 106  14  581
1477480355.022:      5 106  14  581
1477480355.022:      8 106  14  581
1477480355.024:     -3 106  14  581
1477480355.025:    -10 106  14  581
1477480355.026:      3 106  14  581
1477480355.027:     28 106  14  581
1477480355.028:     43 106  14  581
1477480355.032:     42 106  14  581
1477480355.033:     45 106  14  581
1477480355.039:     69 106  14  581
1477480355.053:    113 106  14  581
1477480355.053:    155 106  14  581
1477480355.053:    186 106  14  581
1477480355.053:    212 106  14  581
1477480355.053:    242 106  14  581
1477480355.054:    265 106  14  581
1477480355.054:    272 106  14  581
1477480355.057:    269 106  14  581
1477480355.058:    276 106  14  581
1477480355.059:    294 106  14  581
1477480355.059:    302 106  14  581
1477480355.060:    286 106  14  581
1477480355.061:    258 106  14  581
1477480355.063:    252 106  14  581
1477480355.089:    279 106  14  581
1477480355.090:    322 106  14  581
1477480355.091:    352 106  14  581
1477480355.092:    360 106  14  581
1477480355.092:    364 106  14  581
1477480355.093:    373 106  14  581
1477480355.093:    380 106  14  581
1477480355.094:    374 106  14  581
1477480355.095:    357 106  14  581
1477480355.095:    349 106  14  581
1477480355.096:    362 106  14  581
1477480355.097:    389 107  14  587
1477480355.098:    413 107  14  587
1477480355.098:    428 107  14  587
1477480355.099:    442 107  14  587
1477480355.100:    468 107  14  587
1477480355.101:    505 107  14  587
1477480355.101:    544 107  14  587
1477480355.101:    577 107  14  587
1477480355.103:    600 107  14  587
1477480355.119:    619 107  14  587
1477480355.120:    637 107  14  587
1477480355.121:    658 107  14  587
1477480355.122:    684 107  14  587
1477480355.122:    708 107  14  587
1477480355.123:    716 107  14  587
1477480355.124:    700 107  14  587
1477480355.124:    673 107  14  587
1477480355.125:    657 107  14  587
1477480355.125:    665 107  14  587
1477480355.126:    688 107  14  587
1477480355.127:    711 107  14  587
1477480355.128:    725 107  14  587
1477480355.130:    737 107  14  587
1477480355.139:    752 107  14  587
1477480355.140:    771 107  14  587
1477480355.143:    794 107  14  587
1477480355.145:    825 107  14  587
1477480355.146:    854 107  14  587
1477480355.148:    859 107  14  587
1477480355.148:    833 107  14  587
1477480355.149:    799 107  14  587
1477480355.150:    796 107  14  587
1477480355.152:    830 107  14  587
1477480355.155:    862 107  14  587
1477480355.155:    845 107  14  587
1477480355.157:    787 107  14  587
1477480355.158:    745 107  14  587
1477480355.170:    758 107  14  587
1477480355.171:    810 107  14  587
1477480355.172:    848 107  14  587
1477480355.173:    850 107  14  587
1477480355.174:    844 107  14  587
1477480355.174:    861 107  14  587
1477480355.175:    897 107  14  587
1477480355.176:    916 107  14  587
1477480355.177:    895 107  14  587
1477480355.178:    849 107  14  587
1477480355.190:    814 107  14  587
1477480355.191:    804 107  14  587
1477480355.192:    813 107  14  587
1477480355.194:    827 107  14  587
1477480355.194:    842 107  14  587
1477480355.195:    864 107  14  587
1477480355.195:    899 107  14  587
1477480355.196:    944 107  14  587
1477480355.197:    982 107  14  587
1477480355.197:   1001 107  14  587
1477480355.210:   1000 107  14  587
1477480355.211:    995 107  14  587
1477480355.212:    998 107  14  587
1477480355.212:   1007 107  14  587
1477480355.214:   1006 107  14  587
1477480355.214:    989 107  14  587
1477480355.215:    965 107  14  587
1477480355.217:    948 107  14  587
1477480355.220:    944 107  14  587
1477480355.221:    945 107  14  587
1477480355.222:    944 107  14  587
1477480355.223:    943 107  14  587
1477480355.224:    948 107  14  587
1477480355.227:    957 107  14  587
1477480355.228:    969 107  14  587
1477480355.230:    985 107  14  587
1477480355.232:    999 107  14  587
1477480355.234:    993 107  14  587
1477480355.244:    953 107  14  587
1477480355.246:    884 107  14  587
1477480355.248:    816 107  14  587
1477480355.249:    768 107  14  587
1477480355.250:    732 107  14  587
1477480355.251:    687 107  14  587
1477480355.263:    629 107  14  587
1477480355.264:    580 107  14  587
1477480355.265:    554 107  14  587
1477480355.266:    541 107  14  587
1477480355.267:    520 107  14  587
1477480355.268:    481 107  14  587
1477480355.270:    437 107  14  587
1477480355.271:    402 107  14  587
1477480355.292:    378 107  14  587
1477480355.293:    357 107  14  587
1477480355.293:    331 107  14  587
1477480355.293:    299 107  14  587
1477480355.294:    264 107  14  587
1477480355.294:    231 107  14  587
1477480355.294:    200 107  14  587
1477480355.294:    168 107  14  587
1477480355.295:    121 107  14  587
1477480355.295:     56 107  14  587
1477480355.295:    -10 107  14  587
1477480355.295:    -52 107  14  587
1477480355.295:    -67 107  14  587
1477480355.296:    -82 107  14  587
1477480355.296:   -116 107  14  587
1477480355.296:   -157 107  14  587
1477480355.296:   -170 107  14  587
1477480355.296:   -151 107  14  587
1477480355.297:   -133 107  14  587
1477480355.298:   -157 107  14  587
1477480355.300:   -218 107  14  587
1477480355.304:   -272 107  14  587
1477480355.304:   -291 107  14  587
1477480355.306:   -285 107  14  587
1477480355.307:   -292 107  14  587
1477480355.310:   -330 107  14  587
1477480355.312:   -381 107  14  587
1477480355.313:   -420 107  14  587
1477480355.325:   -438 107  14  587
1477480355.326:   -444 107  14  587
1477480355.326:   -442 107  14  587
1477480355.326:   -432 107  14  587
1477480355.326:   -429 107  14  587
1477480355.328:   -450 107  14  587
1477480355.329:   -495 107  14  587
1477480355.332:   -541 107  14  587
1477480355.333:   -577 107  14  587
1477480355.334:   -624 107  14  587
1477480355.345:   -720 107  14  587
1477480355.346:   -863 107  14  587
1477480355.347:  -1015 107  14  587
1477480355.347:  -1156 107  14  587
1477480355.348:  -1332 107  14  587
1477480355.350:  -1603 107  14  587
1477480355.351:  -1952 107  14  587
1477480355.352:  -2282 107  14  587
1477480355.355:  -2525 107  14  587
1477480355.356:  -2712 107  14  587
1477480355.358:  -2897 107  14  587
1477480355.360:  -3017 107  14  587
1477480355.361:  -2902 107  14  587
1477480355.364:  -2450 107  14  587
1477480355.366:  -1773 107  14  587
1477480355.366:  -1114 107  14  587
1477480355.368:   -613 107  14  587
1477480355.369:   -191 107  14  587
1477480355.372:    321 107  14  587
1477480355.373:    967 107  14  587
1477480355.385:   1627 107  14  587
1477480355.385:   2158 107  14  587
1477480355.386:   2517 107  14  587
1477480355.387:   2759 107  14  587
1477480355.388:   2939 107  14  587
1477480355.388:   3071 107  14  587
1477480355.389:   3141 107  14  587
1477480355.391:   3129 107  14  587
1477480355.391:   2996 107  14  587
1477480355.393:   2692 107  14  587
1477480355.394:   2211 107  14  587
1477480355.400:   1627 107  14  587
1477480355.556:   1049 107  14  587
1477480355.557:    544 107  14  587
1477480355.557:    113 107  14  587
1477480355.557:   -255 107  14  587
1477480355.558:   -547 107  14  587
1477480355.558:   -739 107  14  587
1477480355.559:   -844 107  14  587
1477480355.559:   -906 107  14  587
1477480355.561:   -956 107  14  587
1477480355.561:   -984 107  14  587
1477480355.571:   -981 107  14  587
1477480355.572:   -971 107  14  587
1477480355.572:  -1007 107  14  587
1477480355.573:  -1123 107  14  587
1477480355.574:  -1290 107  14  587
1477480355.574:  -1438 107  14  587
1477480355.575:  -1506 107  14  587
1477480355.576:  -1481 107  14  587
1477480355.576:  -1404 107  14  587
1477480355.576:  -1343 107  14  587
1477480355.577:  -1344 107  14  587
1477480355.578:  -1403 107  14  587
1477480355.590:  -1478 107  14  587
1477480355.591:  -1517 107  14  587
1477480355.591:  -1501 107  14  587
1477480355.592:  -1449 107  14  587
1477480355.593:  -1390 107  14  587
1477480355.593:  -1340 107  14  587
1477480355.594:  -1307 107  14  587
1477480355.594:  -1299 107  14  587
1477480355.595:  -1323 107  14  587
1477480355.595:  -1375 107  14  587
1477480355.596:  -1435 107  14  587
1477480355.596:  -1496 107  14  587
1477480355.625:  -1564 107  14  587
1477480355.627:  -1637 107  14  587
1477480355.628:  -1691 107  14  587
1477480355.629:  -1699 107  14  587
1477480355.630:  -1660 107  14  587
1477480355.630:  -1614 107  14  587
1477480355.630:  -1589 107  14  587
1477480355.632:  -1577 107  14  587
1477480355.633:  -1549 107  14  587
1477480355.633:  -1492 107  14  587
1477480355.633:  -1438 107  14  587
1477480355.634:  -1421 107  14  587
1477480355.634:  -1426 107  14  587
1477480355.635:  -1408 107  14  587
1477480355.635:  -1339 107  14  587
1477480355.636:  -1251 107  14  587
1477480355.636:  -1202 107  14  587
1477480355.637:  -1212 107  14  587
1477480355.637:  -1240 107  14  587
1477480355.638:  -1222 107  14  587
1477480355.651:  -1144 107  14  587
1477480355.652:  -1060 107  14  587
1477480355.652:  -1028 107  14  587
1477480355.652:  -1055 107  14  587
1477480355.652:  -1090 107  14  587
1477480355.652:  -1085 107  14  587
1477480355.653:  -1043 107  14  587
1477480355.653:  -1009 120  16  553
1477480355.653:  -1009 120  16  553
1477480355.653:  -1022 120  16  553
1477480355.654:  -1012 120  16  553
1477480355.654:   -971 120  16  553
1477480355.654:   -930 120  16  553
1477480355.654:   -924 120  16  553
1477480355.654:   -945 120  16  553
1477480355.655:   -952 120  16  553
1477480355.655:   -911 120  16  553
1477480355.655:   -832 120  16  553
1477480355.655:   -764 120  16  553
1477480355.655:   -747 120  16  553
1477480355.655:   -769 120  16  553
1477480355.657:   -783 120  16  553
1477480355.659:   -750 120  16  553
1477480355.659:   -684 120  16  553
1477480355.660:   -637 120  16  553
1477480355.661:   -648 120  16  553
1477480355.661:   -709 120  16  553
1477480355.662:   -777 120  16  553
1477480355.662:   -817 120  16  553
1477480355.663:   -830 120  16  553
1477480355.674:   -838 120  16  553
1477480355.675:   -852 120  16  553
1477480355.676:   -869 120  16  553
1477480355.677:   -875 120  16  553
1477480355.678:   -870 120  16  553
1477480355.678:   -868 120  16  553
1477480355.679:   -882 120  16  553
1477480355.679:   -911 120  16  553
1477480355.680:   -935 120  16  553
1477480355.682:   -938 120  16  553
1477480355.691:   -930 120  16  553
1477480355.691:   -938 120  16  553
1477480355.691:   -978 120  16  553
1477480355.691:  -1030 120  16  553
1477480355.691:  -1047 120  16  553
1477480355.691:  -1011 120  16  553
1477480355.692:   -955 120  16  553
1477480355.692:   -932 120  16  553
1477480355.692:   -953 120  16  553
1477480355.692:   -978 120  16  553
1477480355.692:   -961 120  16  553
1477480355.692:   -911 120  16  553
1477480355.692:   -880 120  16  553
1477480355.693:   -900 120  16  553
1477480355.693:   -956 120  16  553
1477480355.693:  -1007 120  16  553
1477480355.693:  -1039 120  16  553
1477480355.693:  -1075 120  16  553
1477480355.693:  -1128 120  16  553
1477480355.693:  -1184 120  16  553
1477480355.694:  -1214 120  16  553
1477480355.694:  -1208 120  16  553
1477480355.694:  -1180 120  16  553
1477480355.694:  -1145 120  16  553
1477480355.695:  -1109 120  16  553
1477480355.695:  -1073 120  16  553
1477480355.695:  -1044 120  16  553
1477480355.695:  -1022 120  16  553
1477480355.695:   -994 120  16  553
1477480355.696:   -950 120  16  553
1477480355.696:   -901 120  16  553
1477480355.696:   -869 120  16  553
1477480355.696:   -860 120  16  553
1477480355.696:   -850 120  16  553
1477480355.696:   -812 120  16  553
1477480355.696:   -748 120  16  553
1477480355.697:   -689 120  16  553
1477480355.697:   -658 120  16  553
1477480355.697:   -645 120  16  553
1477480355.697:   -623 120  16  553
1477480355.697:   -584 120  16  553
1477480355.697:   -540 120  16  553
1477480355.697:   -505 120  16  553
1477480355.698:   -476 120  16  553
1477480355.698:   -442 120  16  553
1477480355.698:   -402 120  16  553
1477480355.698:   -367 120  16  553
1477480355.698:   -342 120  16  553
1477480355.698:   -320 120  16  553
1477480355.698:   -286 120  16  553
1477480355.699:   -241 120  16  553
1477480355.699:   -199 120  16  553
1477480355.699:   -167 120  16  553
1477480355.699:   -137 120  16  553
1477480355.700:    -97 120  16  553
1477480355.700:    -50 120  16  553
1477480355.700:    -10 120  16  553
1477480355.700:     10 120  16  553
1477480355.701:     25 120  16  553
1477480355.701:     55 120  16  553
1477480355.701:    106 120  16  553
1477480355.707:    160 120  16  553
1477480355.707:    199 120  16  553
1477480355.713:    226 120  16  553
1477480355.713:    259 120  16  553
1477480355.713:    308 120  16  553
1477480355.715:    359 120  16  553
1477480355.717:    395 120  16  553
1477480355.731:    415 120  16  553
1477480355.732:    430 120  16  553
1477480355.733:    449 120  16  553
1477480355.733:    474 120  16  553
1477480355.734:    502 120  16  553
1477480355.734:    536 120  16  553
1477480355.735:    575 120  16  553
1477480355.736:    616 120  16  553
1477480355.736:    651 120  16  553
1477480355.737:    674 120  16  553
1477480355.747:    689 120  16  553
1477480355.748:    698 120  16  553
1477480355.750:    702 120  16  553
1477480355.750:    703 120  16  553
1477480355.751:    707 120  16  553
1477480355.752:    725 120  16  553
1477480355.753:    754 120  16  553
1477480355.754:    781 120  16  553
1477480355.756:    797 120  16  553
1477480355.757:    805 120  16  553
1477480355.757:    818 120  16  553
1477480355.761:    846 120  16  553
1477480355.761:    884 120  16  553
1477480355.762:    923 120  16  553
1477480355.765:    958 120  16  553
1477480355.765:    994 120  16  553
1477480355.768:   1036 120  16  553
1477480355.770:   1082 120  16  553
1477480355.782:   1122 120  16  553
1477480355.783:   1150 120  16  553
1477480355.783:   1165 120  16  553
1477480355.784:   1170 120  16  553
1477480355.785:   1165 120  16  553
1477480355.786:   1154 120  16  553
1477480355.788:   1144 120  16  553
1477480355.789:   1140 120  16  553
1477480355.790:   1143 120  16  553
1477480355.793:   1150 120  16  553
1477480355.801:   1165 120  16  553
1477480355.802:   1183 120  16  553
1477480355.804:   1198 120  16  553
1477480355.805:   1201 120  16  553
1477480355.806:   1204 120  16  553
1477480355.807:   1227 120  16  553
1477480355.808:   1277 120  16  553
1477480355.809:   1328 120  16  553
1477480355.820:   1350 120  16  553
1477480355.820:   1340 120  16  553
1477480355.821:   1331 120  16  553
1477480355.822:   1350 120  16  553
1477480355.823:   1381 120  16  553
1477480355.823:   1385 120  16  553
1477480355.824:   1355 120  16  553
1477480355.824:   1321 120  16  553
1477480355.825:   1315 120  16  553
1477480355.826:   1334 120  16  553
1477480355.837:   1356 120  16  553
1477480355.838:   1370 120  16  553
1477480355.839:   1388 120  16  553
1477480355.839:   1414 120  16  553
1477480355.840:   1427 120  16  553
1477480355.841:   1404 120  16  553
1477480355.841:   1363 120  16  553
1477480355.844:   1346 120  16  553
1477480355.855:   1365 120  16  553
1477480355.855:   1380 120  16  553
1477480355.856:   1346 120  16  553
1477480355.857:   1272 120  16  553
1477480355.858:   1219 120  16  553
1477480355.859:   1221 120  16  553
1477480355.860:   1247 120  16  553
1477480355.860:   1238 120  16  553
1477480355.861:   1187 120  16  553
1477480355.862:   1133 120  16  553
1477480355.862:   1101 120  16  553
1477480355.864:   1066 120  16  553
1477480355.874:    989 120  16  553
1477480355.875:    889 120  16  553
1477480355.876:    813 120  16  553
1477480355.876:    749 120  16  553
1477480355.877:    611 120  16  553
1477480355.878:    329 120  16  553
1477480355.878:    -50 120  16  553
1477480355.879:   -388 120  16  553
1477480355.882:   -588 120  16  553
1477480355.884:   -664 120  16  553
1477480355.892:   -667 120  16  553
1477480355.893:   -574 120  16  553
1477480355.893:   -298 120  16  553
1477480355.894:    187 120  16  553
1477480355.894:    776 120  16  553
1477480355.895:   1309 120  16  553
1477480355.897:   1726 120  16  553
1477480355.904:   2115 120  16  553
1477480355.906:   2595 120  16  553
1477480355.907:   3189 120  16  553
1477480355.908:   3799 120  16  553
1477480355.910:   4296 120  16  553
1477480355.910:   4635 120  16  553
1477480355.912:   4869 120  16  553
1477480355.913:   5085 120  16  553
1477480355.917:   5320 120  16  553
1477480355.930:   5516 120  16  553
1477480355.930:   5559 120  16  553
1477480355.930:   5370 120  16  553
1477480355.931:   4980 120  16  553
1477480355.931:   4502 120  16  553
1477480355.931:   4051 120  16  553
1477480355.931:   3658 120  16  553
1477480355.932:   3288 120  16  553
1477480355.935:   2918 120  16  553
1477480355.936:   2581 120  16  553
1477480355.937:   2333 120  16  553
1477480355.938:   2199 120  16  553
1477480355.949:   2146 120  16  553
1477480355.950:   2132 120  16  553
1477480355.950:   2142 120  16  553
1477480355.951:   2169 120  16  553
1477480355.952:   2192 120  16  553
1477480355.954:   2166 120  16  553
1477480356.120:   2070 120  16  553
1477480356.121:   1929 120  16  553
1477480356.121:   1805 120  16  553
1477480356.121:   1747 120  16  553
1477480356.121:   1765 120  16  553
1477480356.121:   1827 120  16  553
1477480356.121:   1889 120  16  553
1477480356.121:   1917 120  16  553
1477480356.122:   1901 120  16  553
1477480356.122:   1853 120  16  553
1477480356.122:   1793 120  16  553
1477480356.122:   1742 120  16  553
1477480356.123:   1714 120  16  553
1477480356.123:   1715 120  16  553
1477480356.123:   1741 120  16  553
1477480356.123:   1769 120  16  553
1477480356.123:   1778 120  16  553
1477480356.123:   1763 120  16  553
1477480356.123:   1739 120  16  553
1477480356.124:   1716 120  16  553
1477480356.124:   1690 120  16  553
1477480356.124:   1649 120  16  553
1477480356.124:   1595 120  16  553
1477480356.124:   1550 120  16  553
1477480356.124:   1527 120  16  553
1477480356.124:   1521 120  16  553
1477480356.125:   1513 120  16  553
1477480356.126:   1496 120  16  553
1477480356.130:   1479 120  16  553
1477480356.130:   1472 120  16  553
1477480356.161:   1473 120  16  553
1477480356.162:   1472 120  16  553
1477480356.163:   1470 120  16  553
1477480356.163:   1472 120  16  553
1477480356.164:   1481 120  16  553
1477480356.166:   1488 120  16  553
1477480356.166:   1483 120  16  553
1477480356.167:   1468 120  16  553
1477480356.167:   1456 120  16  553
1477480356.168:   1452 120  16  553
1477480356.168:   1454 120  16  553
1477480356.169:   1449 120  16  553
1477480356.169:   1432 120  16  553
1477480356.170:   1406 120  16  553
1477480356.170:   1379 120  16  553
1477480356.171:   1358 120  16  553
1477480356.171:   1348 120  16  553
1477480356.172:   1347 120  16  553
1477480356.172:   1352 120  16  553
1477480356.176:   1355 120  16  553
1477480356.192:   1352 120  16  553
1477480356.193:   1346 120  16  553
1477480356.194:   1341 120  16  553
1477480356.194:   1335 120  16  553
1477480356.194:   1322 120  16  553
1477480356.195:   1299 120  16  553
1477480356.196:   1275 120  16  553
1477480356.196:   1262 120  16  553
1477480356.196:   1258 120  16  553
1477480356.197:   1251 120  16  553
1477480356.199:   1232 120  16  553
1477480356.199:   1207 120  16  553
1477480356.199:   1185 120  16  553
1477480356.200:   1161 120  16  553
1477480356.201:   1115 120  16  553
1477480356.201:   1042 120  16  553
1477480356.211:    965 120  16  553
1477480356.212:    918 120  16  553
1477480356.213:    904 120  16  553
1477480356.213:    894 120  16  553
1477480356.214:    860 120  16  553
1477480356.216:    810 120  16  553
1477480356.217:    781 120  16  553
1477480356.218:    782 120  16  553
1477480356.218:    790 120  16  553
1477480356.219:    771 120  16  553
1477480356.219:    724 120  16  553
1477480356.220:    679 120  16  553
1477480356.221:    657 120  16  553
1477480356.221:    654 120  16  553
1477480356.240:    651 120  16  553
1477480356.241:    640 120  16  553
1477480356.241:    628 120  16  553
1477480356.241:    622 120  16  553
1477480356.242:    623 120  16  553
1477480356.242:    626 120  16  553
1477480356.242:    630 120  16  553
1477480356.242:    635 120  16  553
1477480356.243:    637 120  16  553
1477480356.243:    631 120  16  553
1477480356.243:    622 120  16  553
1477480356.243:    611 120  16  553
1477480356.244:    591 120  16  553
1477480356.244:    547 120  16  553
1477480356.244:    478 120  16  553
1477480356.244:    404 120  16  553
1477480356.244:    348 120  16  553
1477480356.245:    314 120  16  553
1477480356.245:    289 120  16  553
1477480356.245:    258 120  16  553
1477480356.245:    223 120  16  553
1477480356.246:    196 120  16  553
1477480356.246:    181 120  16  553
1477480356.246:    170 120  16  553
1477480356.246:    152 120  16  553
1477480356.247:    125 120  16  553
1477480356.247:     98 120  16  553
1477480356.248:     83 120  16  553
1477480356.248:     82 120  16  553
1477480356.248:     88 120  16  553
1477480356.248:     89 120  16  553
1477480356.249:     83 120  16  553
1477480356.249:     73 120  16  553
1477480356.249:     63 120  16  553
1477480356.249:     52 120  16  553
1477480356.250:     34 120  16  553
1477480356.250:      8 120  16  553
1477480356.250:    -19 120  16  553
1477480356.250:    -37 120  16  553
1477480356.251:    -43 120  16  553
1477480356.251:    -46 120  16  553
1477480356.251:    -59 120  16  553
1477480356.251:    -84 120  16  553
1477480356.251:   -110 120  16  553
1477480356.252:   -128 120  16  553
1477480356.252:   -139 120  16  553
1477480356.252:   -154 120  16  553
1477480356.253:   -179 120  16  553
1477480356.253:   -203 120  16  553
1477480356.253:   -210 120  16  553
1477480356.253:   -202 120  16  553
1477480356.254:   -196 120  16  553
1477480356.254:   -204 120  16  553
1477480356.254:   -218 120  16  553
1477480356.254:   -229 120  16  553
1477480356.255:   -238 120  16  553
1477480356.255:   -254 120  16  553
1477480356.255:   -277 120  16  553
1477480356.255:   -298 120  16  553
1477480356.256:   -310 120  16  553
1477480356.256:   -322 120  16  553
1477480356.256:   -347 120  16  553
1477480356.256:   -378 120  16  553
1477480356.257:   -400 120  16  553
1477480356.257:   -408 120  16  553
1477480356.257:   -418 120  16  553
1477480356.257:   -445 120  16  553
1477480356.257:   -478 120  16  553
1477480356.258:   -492 120  16  553
1477480356.259:   -480 120  16  553
1477480356.260:   -462 120  16  553
1477480356.260:   -464 120  16  553
1477480356.260:   -486 120  16  553
1477480356.260:   -507 120  16  553
1477480356.261:   -516 120  16  553
1477480356.261:   -522 120  16  553
1477480356.261:   -545 120  16  553
1477480356.263:   -584 120  16  553
1477480356.264:   -620 120  16  553
1477480356.267:   -634 120  16  553
1477480356.268:   -631 120  16  553
1477480356.268:   -628 120  16  553
1477480356.273:   -637 120  16  553
1477480356.273:   -647 120  16  553
1477480356.275:   -643 120  16  553
1477480356.277:   -628 120  16  553
1477480356.313:   -619 120  16  553
1477480356.313:   -634 120  16  553
1477480356.314:   -666 120  16  553
1477480356.314:   -687 120  16  553
1477480356.314:   -679 109  14  587
1477480356.314:   -655 109  14  587
1477480356.315:   -637 109  14  587
1477480356.315:   -632 109  14  587
1477480356.315:   -625 109  14  587
1477480356.315:   -602 109  14  587
1477480356.316:   -565 109  14  587
1477480356.316:   -536 109  14  587
1477480356.316:   -530 109  14  587
1477480356.316:   -539 109  14  587
1477480356.316:   -547 109  14  587
1477480356.317:   -542 109  14  587
1477480356.317:   -527 109  14  587
1477480356.317:   -514 109  14  587
1477480356.317:   -513 109  14  587
1477480356.318:   -521 109  14  587
1477480356.319:   -520 109  14  587
1477480356.321:   -496 109  14  587
1477480356.324:   -445 109  14  587
1477480356.325:   -377 109  14  587
1477480356.326:   -309 109  14  587
1477480356.329:   -250 109  14  587
1477480356.332:   -199 109  14  587
1477480356.334:   -149 109  14  587
1477480356.334:    -98 109  14  587
1477480356.335:    -55 109  14  587
1477480356.336:    -30 109  14  587
1477480356.339:    -26 109  14  587
1477480356.341:    -34 109  14  587
1477480356.346:    -40 109  14  587
1477480356.346:    -36 109  14  587
1477480356.348:    -28 109  14  587
1477480356.349:    -19 109  14  587
1477480356.351:     -5 109  14  587
1477480356.353:     20 109  14  587
1477480356.355:     47 109  14  587
1477480356.389:     60 109  14  587
1477480356.394:     51 109  14  587
1477480356.395:     38 109  14  587
1477480356.396:     48 109  14  587
1477480356.397:     88 109  14  587
1477480356.398:    137 109  14  587
1477480356.399:    167 109  14  587
1477480356.400:    174 109  14  587
1477480356.413:    174 109  14  587
1477480356.414:    184 109  14  587
1477480356.415:    206 109  14  587
1477480356.418:    230 109  14  587
1477480356.419:    239 109  14  587
1477480356.420:    225 109  14  587
1477480356.421:    192 109  14  587
1477480356.421:    161 109  14  587
1477480356.431:    158 109  14  587
1477480356.431:    186 109  14  587
1477480356.431:    217 109  14  587
1477480356.431:    223 109  14  587
1477480356.432:    205 109  14  587
1477480356.432:    193 109  14  587
1477480356.432:    210 109  14  587
1477480356.432:    245 109  14  587
1477480356.432:    263 109  14  587
1477480356.432:    253 109  14  587
1477480356.432:    230 109  14  587
1477480356.433:    217 109  14  587
1477480356.433:    209 109  14  587
1477480356.433:    188 109  14  587
1477480356.433:    149 109  14  587
1477480356.433:    114 109  14  587
1477480356.433:    105 109  14  587
1477480356.433:    115 109  14  587
1477480356.434:    120 109  14  587
1477480356.434:    110 109  14  587
1477480356.434:     99 109  14  587
1477480356.434:     98 109  14  587
1477480356.434:     98 109  14  587
1477480356.434:     70 109  14  587
1477480356.435:      1 109  14  587
1477480356.439:    -85 109  14  587
1477480356.440:   -151 109  14  587
1477480356.443:   -181 109  14  587
1477480356.445:   -185 109  14  587
1477480356.449:   -185 109  14  587
1477480356.450:   -181 109  14  587
1477480356.452:   -161 109  14  587
1477480356.453:   -120 109  14  587
1477480356.454:    -72 109  14  587
1477480356.455:    -45 109  14  587
1477480356.457:    -54 109  14  587
1477480356.461:    -90 109  14  587
1477480356.461:   -130 109  14  587
1477480356.479:   -163 109  14  587
1477480356.479:   -193 109  14  587
1477480356.479:   -229 109  14  587
1477480356.480:   -266 109  14  587
1477480356.480:   -289 109  14  587
1477480356.509:   -289 109  14  587
1477480356.521:   -274 109  14  587
1477480356.526:   -263 109  14  587
1477480356.527:   -264 109  14  587
1477480356.527:   -275 109  14  587
1477480356.538:   -290 109  14  587
1477480356.538:   -305 109  14  587
1477480356.539:   -320 109  14  587
1477480356.539:   -335 109  14  587
1477480356.539:   -351 109  14  587
1477480356.539:   -378 109  14  587
1477480356.539:   -418 109  14  587
1477480356.540:   -463 109  14  587
1477480356.540:   -490 109  14  587
1477480356.541:   -490 109  14  587
1477480356.541:   -479 109  14  587
1477480356.541:   -483 109  14  587
1477480356.541:   -511 109  14  587
1477480356.542:   -536 109  14  587
1477480356.542:   -528 109  14  587
1477480356.542:   -493 109  14  587
1477480356.542:   -472 109  14  587
1477480356.542:   -495 109  14  587
1477480356.543:   -550 109  14  587
1477480356.543:   -599 109  14  587
1477480356.543:   -617 109  14  587
1477480356.544:   -617 109  14  587
1477480356.544:   -627 109  14  587
1477480356.544:   -653 109  14  587
1477480356.555:   -675 109  14  587
1477480356.555:   -677 109  14  587
1477480356.556:   -668 109  14  587
1477480356.556:   -671 109  14  587
1477480356.557:   -693 109  14  587
1477480356.557:   -714 109  14  587
1477480356.557:   -712 109  14  587
1477480356.557:   -690 109  14  587
1477480356.558:   -673 109  14  587
1477480356.558:   -682 109  14  587
1477480356.558:   -705 109  14  587
1477480356.559:   -715 109  14  587
1477480356.559:   -698 109  14  587
1477480356.559:   -668 109  14  587
1477480356.559:   -651 109  14  587
1477480356.561:   -661 109  14  587
1477480356.561:   -687 109  14  587
1477480356.563:   -707 109  14  587
1477480356.573:   -711 109  14  587
1477480356.574:   -711 109  14  587
1477480356.575:   -715 109  14  587
1477480356.575:   -723 109  14  587
1477480356.575:   -738 109  14  587
1477480356.575:   -764 109  14  587
1477480356.578:   -808 109  14  587
1477480356.578:   -852 109  14  587
1477480356.580:   -872 109  14  587
1477480356.582:   -868 109  14  587
1477480356.590:   -879 109  14  587
1477480356.591:   -940 109  14  587
1477480356.591:  -1046 109  14  587
1477480356.592:  -1174 109  14  587
1477480356.596:  -1345 109  14  587
1477480356.600:  -1621 109  14  587
1477480356.610:  -2020 109  14  587
1477480356.611:  -2467 109  14  587
1477480356.611:  -2860 109  14  587
1477480356.611:  -3184 109  14  587
1477480356.611:  -3503 109  14  587
1477480356.611:  -3814 109  14  587
1477480356.611:  -3970 109  14  587
1477480356.611:  -3796 109  14  587
1477480356.613:  -3293 109  14  587
1477480356.614:  -2664 109  14  587
1477480356.617:  -2113 109  14  587
1477480356.710:  -1637 109  14  587
1477480356.712:  -1063 109  14  587
1477480356.712:   -271 109  14  587
1477480356.712:    668 109  14  587
1477480356.712:   1577 109  14  587
1477480356.712:   2341 109  14  587
1477480356.712:   2956 109  14  587
1477480356.712:   3454 109  14  587
1477480356.712:   3822 109  14  587
1477480356.713:   4025 109  14  587
1477480356.713:   4056 109  14  587
1477480356.713:   3931 109  14  587
1477480356.713:   3649 109  14  587
1477480356.713:   3199 109  14  587
1477480356.713:   2608 109  14  587
1477480356.713:   1960 109  14  587
1477480356.714:   1361 109  14  587
1477480356.714:    882 109  14  587
1477480356.714:    540 109  14  587
1477480356.714:    314 109  14  587
1477480356.714:    165 109  14  587
1477480356.714:     57 109  14  587
1477480356.714:    -28 109  14  587
1477480356.715:    -77 109  14  587
1477480356.715:    -77 109  14  587
1477480356.715:    -42 109  14  587
1477480356.715:    -24 109  14  587
1477480356.715:    -76 109  14  587
1477480356.715:   -209 109  14  587
1477480356.715:   -383 109  14  587
1477480356.716:   -530 109  14  587
1477480356.716:   -598 109  14  587
1477480356.716:   -578 109  14  587
1477480356.716:   -507 109  14  587
1477480356.716:   -444 109  14  587
1477480356.716:   -421 109  14  587
1477480356.716:   -425 109  14  587
1477480356.717:   -418 109  14  587
1477480356.717:   -392 109  14  587
1477480356.717:   -380 109  14  587
1477480356.717:   -410 109  14  587
1477480356.717:   -457 109  14  587
1477480356.717:   -461 109  14  587
1477480356.717:   -390 109  14  587
1477480356.717:   -283 109  14  587
1477480356.718:   -205 109  14  587
1477480356.718:   -186 109  14  587
1477480356.718:   -195 109  14  587
1477480356.718:   -184 109  14  587
1477480356.718:   -140 109  14  587
1477480356.719:    -85 109  14  587
1477480356.719:    -43 109  14  587
1477480356.720:    -20 109  14  587
1477480356.721:     -8 109  14  587
1477480356.726:      1 109  14  587
1477480356.726:      5 109  14  587
1477480356.727:      4 109  14  587
1477480356.729:      1 109  14  587
1477480356.731:      1 109  14  587
1477480356.733:      9 109  14  587
1477480356.735:     26 109  14  587
1477480356.739:     47 109  14  587
1477480356.739:     54 109  14  587
1477480356.755:     35 109  14  587
1477480356.755:     -3 109  14  587
1477480356.755:    -36 109  14  587
1477480356.755:    -49 109  14  587
1477480356.755:    -48 109  14  587
1477480356.755:    -58 109  14  587
1477480356.756:    -95 109  14  587
1477480356.756:   -155 109  14  587
1477480356.757:   -218 109  14  587
1477480356.759:   -266 109  14  587
1477480356.760:   -297 109  14  587
1477480356.770:   -329 109  14  587
1477480356.770:   -376 109  14  587
1477480356.770:   -443 109  14  587
1477480356.775:   -509 109  14  587
1477480356.776:   -552 109  14  587
1477480356.776:   -570 109  14  587
1477480356.776:   -583 109  14  587
1477480356.778:   -614 109  14  587
1477480356.779:   -658 109  14  587
1477480356.784:   -685 109  14  587
1477480356.785:   -674 109  14  587
1477480356.785:   -638 109  14  587
1477480356.789:   -611 109  14  587
1477480356.789:   -613 109  14  587
1477480356.791:   -633 109  14  587
1477480356.808:   -653 109  14  587
1477480356.808:   -673 109  14  587
1477480356.808:   -709 109  14  587
1477480356.808:   -764 109  14  587
1477480356.809:   -821 109  14  587
1477480356.809:   -855 109  14  587
1477480356.810:   -866 109  14  587
1477480356.810:   -875 109  14  587
1477480356.810:   -903 109  14  587
1477480356.810:   -948 109  14  587
1477480356.812:   -994 109  14  587
1477480356.818:  -1034 109  14  587
1477480356.818:  -1081 109  14  587
1477480356.820:  -1149 109  14  587
1477480356.821:  -1236 109  14  587
1477480356.824:  -1320 109  14  587
1477480356.840:  -1376 109  14  587
1477480356.841:  -1400 109  14  587
1477480356.842:  -1407 109  14  587
1477480356.842:  -1421 109  14  587
1477480356.843:  -1457 109  14  587
1477480356.844:  -1512 109  14  587
1477480356.845:  -1575 107  14  578
1477480356.846:  -1635 107  14  578
1477480356.847:  -1694 107  14  578
1477480356.847:  -1758 107  14  578
1477480356.848:  -1831 107  14  578
1477480356.849:  -1907 107  14  578
1477480356.849:  -1979 107  14  578
1477480356.850:  -2040 107  14  578
1477480356.860:  -2086 107  14  578
1477480356.861:  -2118 107  14  578
1477480356.861:  -2134 107  14  578
1477480356.862:  -2139 107  14  578
1477480356.863:  -2139 107  14  578
1477480356.863:  -2136 107  14  578
1477480356.864:  -2125 107  14  578
1477480356.866:  -2101 107  14  578
1477480356.867:  -2067 107  14  578
1477480356.870:  -2033 107  14  578
1477480356.872:  -2002 107  14  578
1477480356.878:  -1968 107  14  578
1477480356.879:  -1930 107  14  578
1477480356.879:  -1901 107  14  578
1477480356.879:  -1900 107  14  578
1477480356.880:  -1919 107  14  578
1477480356.883:  -1930 107  14  578
1477480356.885:  -1919 107  14  578
1477480356.899:  -1903 107  14  578
1477480356.899:  -1913 107  14  578
1477480356.899:  -1950 107  14  578
1477480356.899:  -1976 107  14  578
1477480356.900:  -1954 107  14  578
1477480356.900:  -1894 107  14  578
1477480356.900:  -1829 107  14  578
1477480356.903:  -1774 107  14  578
1477480356.903:  -1705 107  14  578
1477480356.907:  -1608 107  14  578
1477480356.907:  -1504 107  14  578
1477480356.907:  -1428 107  14  578
1477480356.910:  -1391 107  14  578
1477480356.913:  -1360 107  14  578
1477480356.921:  -1303 107  14  578
1477480356.921:  -1231 107  14  578
1477480356.921:  -1180 107  14  578
1477480356.922:  -1171 107  14  578
1477480356.922:  -1181 107  14  578
1477480356.950:  -1166 107  14  578
1477480356.962:  -1103 107  14  578
1477480356.962:  -1008 107  14  578
1477480356.962:   -918 107  14  578
1477480356.963:   -862 107  14  578
1477480356.963:   -842 107  14  578
1477480356.963:   -837 107  14  578
1477480356.964:   -827 107  14  578
1477480356.964:   -809 107  14  578
1477480356.964:   -791 107  14  578
1477480356.964:   -782 107  14  578
1477480356.965:   -775 107  14  578
1477480356.965:   -759 107  14  578
1477480356.965:   -729 107  14  578
1477480356.965:   -690 107  14  578
1477480356.965:   -653 107  14  578
1477480356.966:   -624 107  14  578
1477480356.966:   -607 107  14  578
1477480356.966:   -600 107  14  578
1477480356.966:   -598 107  14  578
1477480356.966:   -591 107  14  578
1477480356.967:   -575 107  14  578
1477480356.968:   -561 107  14  578
1477480356.969:   -559 107  14  578
1477480356.971:   -562 107  14  578
1477480356.972:   -550 107  14  578
1477480356.977:   -516 107  14  578
1477480356.977:   -485 107  14  578
1477480356.978:   -484 107  14  578
1477480356.981:   -513 107  14  578
1477480356.982:   -535 107  14  578
1477480356.985:   -519 107  14  578
1477480356.986:   -474 107  14  578
1477480357.001:   -441 107  14  578
1477480357.003:   -444 107  14  578
1477480357.004:   -464 107  14  578
1477480357.004:   -473 107  14  578
1477480357.006:   -464 107  14  578
1477480357.008:   -461 107  14  578
1477480357.010:   -486 107  14  578
1477480357.010:   -525 107  14  578
1477480357.021:   -547 107  14  578
1477480357.022:   -539 107  14  578
1477480357.023:   -521 107  14  578
1477480357.027:   -522 107  14  578
1477480357.038:   -545 107  14  578
1477480357.039:   -562 107  14  578
1477480357.043:   -555 107  14  578
1477480357.043:   -534 107  14  578
1477480357.044:   -531 107  14  578
1477480357.045:   -559 107  14  578
1477480357.056:   -592 107  14  578
1477480357.059:   -596 107  14  578
1477480357.061:   -578 107  14  578
1477480357.061:   -574 107  14  578
1477480357.062:   -605 107  14  578
1477480357.063:   -649 107  14  578
1477480357.073:   -674 107  14  578
1477480357.073:   -681 107  14  578
1477480357.073:   -710 107  14  578
1477480357.073:   -783 107  14  578
1477480357.073:   -885 107  14  578
1477480357.074:  -1005 107  14  578
1477480357.074:  -1184 107  14  578
1477480357.074:  -1479 107  14  578
1477480357.074:  -1880 107  14  578
1477480357.074:  -2291 107  14  578
1477480357.074:  -2610 107  14  578
1477480357.074:  -2812 107  14  578
1477480357.075:  -2944 107  14  578
1477480357.075:  -3028 107  14  578
1477480357.075:  -3017 107  14  578
1477480357.075:  -2831 107  14  578
1477480357.075:  -2434 107  14  578
1477480357.075:  -1871 107  14  578
1477480357.075:  -1228 107  14  578
1477480357.076:   -580 107  14  578
1477480357.076:     47 107  14  578
1477480357.079:    698 107  14  578
1477480357.081:   1447 107  14  578
1477480357.083:   2326 107  14  578
1477480357.105:   3258 107  14  578
1477480357.106:   4084 107  14  578
1477480357.106:   4676 107  14  578
1477480357.107:   5018 107  14  578
1477480357.108:   5175 107  14  578
1477480357.109:   5194 107  14  578
1477480357.110:   5055 107  14  578
1477480357.110:   4711 107  14  578
1477480357.111:   4166 107  14  578
1477480357.112:   3489 107  14  578
1477480357.112:   2770 107  14  578
1477480357.113:   2095 107  14  578
1477480357.114:   1546 107  14  578
1477480357.114:   1188 107  14  578
1477480357.116:   1017 107  14  578
1477480357.117:    959 107  14  578
1477480357.117:    925 107  14  578
1477480357.118:    880 107  14  578
1477480357.119:    855 107  14  578
1477480357.120:    877 107  14  578
1477480357.123:    914 107  14  578
1477480357.124:    904 107  14  578
1477480357.127:    822 107  14  578
1477480357.127:    708 107  14  578
1477480357.132:    624 107  14  578
1477480357.133:    596 107  14  578
1477480357.143:    600 107  14  578
1477480357.143:    609 107  14  578
1477480357.144:    619 107  14  578
1477480357.144:    648 107  14  578
1477480357.144:    692 107  14  578
1477480357.145:    722 107  14  578
1477480357.303:    700 107  14  578
1477480357.303:    627 107  14  578
1477480357.303:    546 107  14  578
1477480357.303:    513 107  14  578
1477480357.303:    543 107  14  578
1477480357.303:    602 107  14  578
1477480357.304:    642 107  14  578
1477480357.304:    645 107  14  578
1477480357.304:    637 107  14  578
1477480357.304:    648 107  14  578
1477480357.304:    678 107  14  578
1477480357.304:    692 107  14  578
1477480357.305:    671 107  14  578
1477480357.305:    631 107  14  578
1477480357.305:    609 107  14  578
1477480357.306:    611 107  14  578
1477480357.306:    612 107  14  578
1477480357.306:    587 107  14  578
1477480357.306:    546 107  14  578
1477480357.307:    522 107  14  578
1477480357.307:    528 107  14  578
1477480357.308:    541 107  14  578
1477480357.308:    534 107  14  578
1477480357.308:    512 107  14  578
1477480357.308:    499 107  14  578
1477480357.308:    505 107  14  578
1477480357.308:    510 107  14  578
1477480357.309:    488 107  14  578
1477480357.309:    436 107  14  578
1477480357.309:    378 107  14  578
1477480357.310:    343 107  14  578
1477480357.310:    337 107  14  578
1477480357.310:    344 107  14  578
1477480357.310:    342 107  14  578
1477480357.311:    324 107  14  578
1477480357.311:    303 107  14  578
1477480357.311:    298 107  14  578
1477480357.311:    319 107  14  578
1477480357.311:    353 107  14  578
1477480357.311:    383 107  14  578
1477480357.322:    399 107  14  578
1477480357.322:    409 107  14  578
1477480357.322:    420 107  14  578
1477480357.322:    423 107  14  578
1477480357.322:    405 107  14  578
1477480357.323:    369 107  14  578
1477480357.323:    331 107  14  578
1477480357.323:    301 107  14  578
1477480357.323:    272 107  14  578
1477480357.324:    238 107  14  578
1477480357.324:    206 107  14  578
1477480357.324:    194 107  14  578
1477480357.324:    206 107  14  578
1477480357.324:    227 107  14  578
1477480357.325:    241 107  14  578
1477480357.325:    248 107  14  578
1477480357.325:    252 107  14  578
1477480357.326:    249 107  14  578
1477480357.327:    228 107  14  578
1477480357.327:    190 107  14  578
1477480357.327:    159 107  14  578
1477480357.327:    153 107  14  578
1477480357.327:    166 107  14  578
1477480357.327:    172 107  14  578
1477480357.327:    160 107  14  578
1477480357.328:    141 107  14  578
1477480357.328:    124 107  14  578
1477480357.328:    105 107  14  578
1477480357.328:     72 107  14  578
1477480357.328:     27 107  14  578
1477480357.329:     -9 107  14  578
1477480357.329:    -23 107  14  578
1477480357.329:    -24 107  14  578
1477480357.329:    -34 107  14  578
1477480357.329:    -54 107  14  578
1477480357.330:    -69 107  14  578
1477480357.340:    -60 107  14  578
1477480357.340:    -29 107  14  578
1477480357.340:      9 107  14  578
1477480357.340:     38 107  14  578
1477480357.341:     56 107  14  578
1477480357.342:     74 107  14  578
1477480357.342:    100 107  14  578
1477480357.343:    139 107  14  578
1477480357.343:    187 107  14  578
1477480357.343:    238 107  14  578
1477480357.343:    277 107  14  578
1477480357.343:    294 107  14  578
1477480357.344:    287 107  14  578
1477480357.344:    273 107  14  578
1477480357.344:    278 107  14  578
1477480357.344:    315 107  14  578
1477480357.344:    369 107  14  578
1477480357.344:    412 107  14  578
1477480357.345:    428 107  14  578
1477480357.346:    428 107  14  578
1477480357.346:    439 107  14  578
1477480357.346:    468 107  14  578
1477480357.346:    501 107  14  578
1477480357.346:    519 107  14  578
1477480357.346:    523 107  14  578
1477480357.347:    526 107  14  578
1477480357.358:    534 107  14  578
1477480357.358:    539 107  14  578
1477480357.358:    542 107  14  578
1477480357.358:    550 107  14  578
1477480357.358:    574 107  14  578
1477480357.358:    603 107  14  578
1477480357.359:    617 107  14  578
1477480357.359:    614 107  14  578
1477480357.364:    618 107  14  578
1477480357.364:    656 107  14  578
1477480357.367:    725 107  14  578
1477480357.367:    793 107  14  578
1477480357.368:    833 107  14  578
1477480357.374:    845 107  14  578
1477480357.375:    848 107  14  578
1477480357.379:    862 107  14  578
1477480357.379:    886 107  14  578
1477480357.379:    907 107  14  578
1477480357.383:    913 107  14  578
1477480357.383:    901 107  14  578
1477480357.384:    878 107  14  578
1477480357.387:    860 107  14  578
1477480357.400:    856 107  14  578
1477480357.400:    865 107  14  578
1477480357.400:    875 107  14  578
1477480357.401:    876 107  14  578
1477480357.401:    873 107  14  578
1477480357.401:    878 107  14  578
1477480357.402:    896 107  14  578
1477480357.406:    924 107  14  578
1477480357.407:    954 107  14  578
1477480357.408:    985 107  14  578
1477480357.408:   1016 107  14  578
1477480357.410:   1036 107  14  578
1477480357.413:   1031 107  14  578
1477480357.414:   1000 107  14  578
1477480357.423:    957 107  14  578
1477480357.423:    921 107  14  578
1477480357.424:    901 107  14  578
1477480357.424:    890 107  14  578
1477480357.425:    877 107  14  578
1477480357.428:    857 107  14  578
1477480357.430:    836 107  14  578
1477480357.434:    822 107  14  578
1477480357.443:    819 107  14  578
1477480357.443:    816 107  14  578
1477480357.443:    804 107  14  578
1477480357.443:    776 107  14  578
1477480357.443:    741 107  14  578
1477480357.443:    709 107  14  578
1477480357.448:    689 107  14  578
1477480357.451:    683 107  14  578
1477480357.452:    680 107  14  578
1477480357.454:    668 107  14  578
1477480357.455:    644 107  14  578
1477480357.456:    614 107  14  578
1477480357.465:    581 107  14  578
1477480357.465:    535 107  14  578
1477480357.465:    454 107  14  578
1477480357.466:    324 107  14  578
1477480357.485:    160 107  14  578
1477480357.485:    -17 107  14  578
1477480357.485:   -218 107  14  578
1477480357.486:   -481 107  14  578
1477480357.486:   -814 107  14  578
1477480357.487:  -1155 107  14  578
1477480357.487:  -1412 107  14  578
1477480357.487:  -1552 107  14  578
1477480357.488:  -1625 107  14  578
1477480357.488:  -1699 107  14  578
1477480357.494:  -1752 107  14  578
1477480357.494:  -1679 107  14  578
1477480357.494:  -1392 107  14  578
1477480357.494:   -911 107  14  578
1477480357.495:   -354 107  14  578
1477480357.495:    176 107  14  578
1477480357.495:    684 107  14  578
1477480357.499:   1267 107  14  578
1477480357.499:   2027 107  14  578
1477480357.502:   2964 107  14  578
1477480357.503:   3959 107  14  578
1477480357.507:   4840 107  14  578
1477480357.508:   5480 107  14  578
1477480357.509:   5861 107  14  578
1477480357.527:   6037 107  14  578
1477480357.529:   6057 107  14  578
1477480357.530:   5904 107  14  578
1477480357.531:   5530 107  14  578
1477480357.532:   4923 107  14  578
1477480357.533:   4159 107  14  578
1477480357.534:   3362 107  14  578
1477480357.535:   2644 107  14  578
1477480357.535:   2063 107  14  578
1477480357.536:   1640 107  14  578
1477480357.548:   1372 107  14  578
1477480357.549:   1236 103  13  590
1477480357.549:   1185 103  13  590
1477480357.549:   1159 103  13  590
1477480357.549:   1126 103  13  590
1477480357.549:   1087 103  13  590
1477480357.582:   1062 103  13  590
1477480357.582:   1050 103  13  590
1477480357.582:   1028 103  13  590
1477480357.583:    972 103  13  590
1477480357.583:    891 103  13  590
1477480357.583:    814 103  13  590
1477480357.583:    761 103  13  590
1477480357.583:    732 103  13  590
1477480357.584:    715 103  13  590
1477480357.584:    701 103  13  590
1477480357.584:    685 103  13  590
1477480357.584:    656 103  13  590
1477480357.584:    601 103  13  590
1477480357.584:    523 103  13  590
1477480357.585:    454 103  13  590
1477480357.585:    429 103  13  590
1477480357.585:    456 103  13  590
1477480357.585:    511 103  13  590
1477480357.585:    562 103  13  590
1477480357.586:    592 103  13  590
1477480357.586:    603 103  13  590
1477480357.586:    599 103  13  590
1477480357.586:    580 103  13  590
1477480357.588:    553 103  13  590
1477480357.590:    532 103  13  590
1477480357.591:    523 103  13  590
1477480357.593:    512 103  13  590
1477480357.599:    479 103  13  590
1477480357.600:    428 103  13  590
1477480357.601:    387 103  13  590
1477480357.602:    379 103  13  590
1477480357.603:    389 103  13  590
1477480357.606:    385 103  13  590
1477480357.607:    349 103  13  590
1477480357.613:    306 103  13  590
1477480357.614:    289 103  13  590
1477480357.615:    305 103  13  590
1477480357.616:    325 103  13  590
1477480357.617:    320 103  13  590
1477480357.619:    289 103  13  590
1477480357.636:    251 103  13  590
1477480357.637:    227 103  13  590
1477480357.638:    223 103  13  590
1477480357.639:    231 103  13  590
1477480357.639:    235 103  13  590
1477480357.640:    217 103  13  590
1477480357.641:    177 103  13  590
1477480357.642:    130 103  13  590
1477480357.643:     99 103  13  590
1477480357.644:     89 103  13  590
1477480357.646:     86 103  13  590
1477480357.646:     79 103  13  590
1477480357.659:     70 103  13  590
1477480357.659:     76 103  13  590
1477480357.660:     96 103  13  590
1477480357.661:    112 103  13  590
1477480357.662:    107 103  13  590
1477480357.662:     81 103  13  590
1477480357.663:     46 103  13  590
1477480357.664:     10 103  13  590
1477480357.664:    -29 103  13  590
1477480357.666:    -67 103  13  590
1477480357.677:    -94 103  13  590
1477480357.677:   -101 103  13  590
1477480357.677:    -95 103  13  590
1477480357.677:    -84 103  13  590
1477480357.677:    -69 103  13  590
1477480357.678:    -46 103  13  590
1477480357.679:    -17 103  13  590
1477480357.679:      7 103  13  590
1477480357.681:     15 103  13  590
1477480357.685:     12 103  13  590
1477480357.685:     14 103  13  590
1477480357.687:     31 103  13  590
1477480357.688:     53 103  13  590
1477480357.692:     61 103  13  590
1477480357.692:     49 103  13  590
1477480357.695:     36 103  13  590
1477480357.710:     40 103  13  590
1477480357.711:     59 103  13  590
1477480357.711:     72 103  13  590
1477480357.711:     61 103  13  590
1477480357.711:     35 103  13  590
1477480357.711:     19 103  13  590
1477480357.711:     24 103  13  590
1477480357.713:     31 103  13  590
1477480357.713:     24 103  13  590
1477480357.716:      7 103  13  590
1477480357.717:      3 103  13  590
1477480357.717:     18 103  13  590
1477480357.720:     31 103  13  590
1477480357.722:     27 103  13  590
1477480357.732:     23 103  13  590
1477480357.732:     52 103  13  590
1477480357.732:    113 103  13  590
1477480357.732:    162 103  13  590
1477480357.732:    155 103  13  590
1477480357.735:    102 103  13  590
1477480357.736:     59 103  13  590
1477480357.740:     62 103  13  590
1477480357.742:     94 103  13  590
1477480357.744:    107 103  13  590
1477480357.752:     85 103  13  590
1477480357.753:     58 103  13  590
1477480357.753:     73 103  13  590
1477480357.753:    137 103  13  590
1477480357.756:    220 103  13  590
1477480357.757:    285 103  13  590
1477480357.758:    316 103  13  590
1477480357.759:    329 103  13  590
1477480357.760:    343 103  13  590
1477480357.762:    368 103  13  590
1477480357.763:    396 103  13  590
1477480357.764:    416 103  13  590
1477480357.774:    426 103  13  590
1477480357.774:    434 103  13  590
1477480357.774:    451 103  13  590
1477480357.774:    477 103  13  590
1477480357.774:    502 103  13  590
1477480357.775:    508 103  13  590
1477480357.784:    490 103  13  590
1477480357.785:    458 103  13  590
1477480357.793:    427 103  13  590
1477480357.794:    403 103  13  590
1477480357.794:    380 103  13  590
1477480357.794:    349 103  13  590
1477480357.794:    310 103  13  590
1477480357.794:    272 103  13  590
1477480357.794:    245 103  13  590
1477480357.796:    232 103  13  590
1477480357.800:    229 103  13  590
1477480357.800:    228 103  13  590
1477480357.805:    218 103  13  590
1477480357.805:    198 103  13  590
1477480357.818:    176 103  13  590
1477480357.818:    165 103  13  590
1477480357.819:    165 103  13  590
1477480357.819:    165 103  13  590
1477480357.819:    149 103  13  590
1477480357.819:    118 103  13  590
1477480357.819:     90 103  13  590
1477480357.820:     79 103  13  590
1477480357.822:     82 103  13  590
1477480357.823:     87 103  13  590
1477480357.827:     83 103  13  590
1477480357.827:     73 103  13  590
1477480357.838:     61 103  13  590
1477480357.838:     48 103  13  590
1477480357.838:     32 103  13  590
1477480357.839:      8 103  13  590
1477480357.839:    -27 103  13  590
1477480357.839:    -67 103  13  590
1477480357.840:    -98 103  13  590
1477480357.843:   -103 103  13  590
1477480357.844:    -81 103  13  590
1477480357.850:    -47 103  13  590
1477480357.955:    -18 103  13  590
1477480357.956:      3 103  13  590
1477480357.956:     31 103  13  590
1477480357.957:     72 103  13  590
1477480357.957:    116 103  13  590
1477480357.958:    147 103  13  590
1477480357.958:    154 103  13  590
1477480357.959:    148 103  13  590
1477480357.970:    147 103  13  590
1477480357.971:    161 103  13  590
1477480357.971:    187 103  13  590
1477480357.971:    209 103  13  590
1477480357.971:    216 103  13  590
1477480357.971:    212 103  13  590
1477480357.971:    215 103  13  590
1477480357.972:    242 103  13  590
1477480357.972:    283 103  13  590
1477480357.972:    316 103  13  590
1477480357.972:    327 103  13  590
1477480357.972:    331 103  13  590
1477480357.972:    344 103  13  590
1477480357.973:    356 103  13  590
1477480357.973:    349 103  13  590
1477480357.973:    320 103  13  590
1477480357.973:    287 103  13  590
1477480357.973:    264 103  13  590
1477480357.973:    245 103  13  590
1477480357.973:    218 103  13  590
1477480357.974:    196 103  13  590
1477480357.974:    190 103  13  590
1477480357.974:    187 103  13  590
1477480357.974:    155 103  13  590
1477480357.974:     89 103  13  590
1477480357.974:     10 103  13  590
1477480357.974:    -84 103  13  590
1477480357.975:   -243 103  13  590
1477480357.975:   -508 103  13  590
1477480357.975:   -834 103  13  590
1477480357.975:  -1106 103  13  590
1477480357.975:  -1249 103  13  590
1477480357.975:  -1300 103  13  590
1477480357.975:  -1337 103  13  590
1477480357.975:  -1353 103  13  590
1477480357.976:  -1234 103  13  590
1477480357.976:   -873 103  13  590
1477480357.976:   -298 103  13  590
1477480357.976:    344 103  13  590
1477480357.976:    917 103  13  590
1477480357.976:   1420 103  13  590
1477480357.976:   1975 103  13  590
1477480357.977:   2699 103  13  590
1477480357.977:   3587 103  13  590
1477480357.977:   4508 103  13  590
1477480357.977:   5293 103  13  590
1477480357.977:   5846 103  13  590
1477480357.977:   6177 103  13  590
1477480357.978:   6344 103  13  590
1477480357.978:   6379 103  13  590
1477480357.978:   6263 103  13  590
1477480357.978:   5963 103  13  590
1477480357.978:   5470 103  13  590
1477480357.979:   4824 103  13  590
1477480357.979:   4102 103  13  590
1477480357.979:   3402 103  13  590
1477480357.979:   2826 103  13  590
1477480357.979:   2429 103  13  590
1477480357.979:   2198 103  13  590
1477480357.980:   2064 103  13  590
1477480357.982:   1967 103  13  590
1477480357.984:   1884 103  13  590
1477480357.987:   1828 103  13  590
1477480357.990:   1806 101  13  560
1477480358.004:   1797 101  13  560
1477480358.005:   1773 101  13  560
1477480358.005:   1709 101  13  560
1477480358.005:   1589 101  13  560
1477480358.008:   1425 101  13  560
1477480358.009:   1262 101  13  560
1477480358.010:   1161 101  13  560
1477480358.011:   1149 101  13  560
1477480358.011:   1198 101  13  560
1477480358.012:   1251 101  13  560
1477480358.012:   1274 101  13  560
1477480358.013:   1271 101  13  560
1477480358.015:   1248 101  13  560
1477480358.017:   1194 101  13  560
1477480358.028:   1101 101  13  560
1477480358.028:    994 101  13  560
1477480358.028:    922 101  13  560
1477480358.029:    907 101  13  560
1477480358.029:    918 101  13  560
1477480358.029:    911 101  13  560
1477480358.029:    869 101  13  560
1477480358.032:    813 101  13  560
1477480358.033:    767 101  13  560
1477480358.038:    732 101  13  560
1477480358.051:    702 101  13  560
1477480358.051:    688 101  13  560
1477480358.051:    700 101  13  560
1477480358.051:    738 101  13  560
1477480358.051:    781 101  13  560
1477480358.052:    811 101  13  560
1477480358.052:    824 101  13  560
1477480358.052:    826 101  13  560
1477480358.053:    814 101  13  560
1477480358.054:    773 101  13  560
1477480358.057:    706 101  13  560
1477480358.060:    637 101  13  560
1477480358.061:    596 101  13  560
1477480358.065:    588 101  13  560
1477480358.074:    591 101  13  560
1477480358.074:    585 101  13  560
1477480358.075:    578 101  13  560
1477480358.076:    594 101  13  560
1477480358.077:    636 101  13  560
1477480358.078:    678 101  13  560
1477480358.078:    692 101  13  560
1477480358.079:    675 101  13  560
1477480358.083:    653 101  13  560
1477480358.083:    650 101  13  560
1477480358.091:    661 101  13  560
1477480358.091:    668 101  13  560
1477480358.092:    662 101  13  560
1477480358.092:    652 101  13  560
1477480358.093:    649 101  13  560
1477480358.094:    655 101  13  560
1477480358.097:    661 101  13  560
1477480358.099:    665 101  13  560
1477480358.111:    666 101  13  560
1477480358.112:    667 101  13  560
1477480358.113:    661 101  13  560
1477480358.113:    643 101  13  560
1477480358.114:    618 101  13  560
1477480358.116:    591 101  13  560
1477480358.117:    562 101  13  560
1477480358.117:    527 101  13  560
1477480358.118:    478 101  13  560
1477480358.119:    421 101  13  560
1477480358.120:    366 101  13  560
1477480358.121:    325 101  13  560
1477480358.122:    299 101  13  560
1477480358.127:    277 101  13  560
1477480358.141:    250 101  13  560
1477480358.142:    213 101  13  560
1477480358.142:    168 101  13  560
1477480358.143:    123 101  13  560
1477480358.143:     80 101  13  560
1477480358.144:     42 101  13  560
1477480358.144:      8 101  13  560
1477480358.145:    -26 101  13  560
1477480358.146:    -70 101  13  560
1477480358.146:   -127 101  13  560
1477480358.147:   -188 101  13  560
1477480358.151:   -232 101  13  560
1477480358.159:   -250 101  13  560
1477480358.159:   -257 101  13  560
1477480358.161:   -285 101  13  560
1477480358.162:   -345 101  13  560
1477480358.162:   -422 101  13  560
1477480358.163:   -489 101  13  560
1477480358.166:   -539 101  13  560
1477480358.167:   -582 101  13  560
1477480358.167:   -631 101  13  560
1477480358.169:   -685 101  13  560
1477480358.174:   -734 101  13  560
1477480358.174:   -777 101  13  560
1477480358.182:   -820 101  13  560
1477480358.184:   -866 101  13  560
1477480358.186:   -910 101  13  560
1477480358.189:   -938 101  13  560
1477480358.199:   -946 101  13  560
1477480358.199:   -936 101  13  560
1477480358.199:   -924 101  13  560
1477480358.200:   -924 101  13  560
1477480358.200:   -942 101  13  560
1477480358.200:   -970 101  13  560
1477480358.200:   -991 101  13  560
1477480358.200:   -996 101  13  560
1477480358.203:   -996 101  13  560
1477480358.204:  -1010 101  13  560
1477480358.204:  -1046 101  13  560
1477480358.229:  -1081 101  13  560
1477480358.236:  -1083 101  13  560
1477480358.237:  -1043 101  13  560
1477480358.237:   -981 101  13  560
1477480358.237:   -935 101  13  560
1477480358.237:   -920 101  13  560
1477480358.237:   -922 101  13  560
1477480358.237:   -922 101  13  560
1477480358.237:   -919 101  13  560
1477480358.238:   -926 101  13  560
1477480358.238:   -952 101  13  560
1477480358.238:   -983 101  13  560
1477480358.238:   -998 101  13  560
1477480358.238:   -993 101  13  560
1477480358.238:   -984 101  13  560
1477480358.238:   -983 101  13  560
1477480358.242:   -990 101  13  560
1477480358.242:   -994 101  13  560
1477480358.243:   -993 101  13  560
1477480358.244:  -1002 101  13  560
1477480358.245:  -1040 101  13  560
1477480358.247:  -1100 101  13  560
1477480358.247:  -1158 101  13  560
1477480358.249:  -1201 101  13  560
1477480358.251:  -1242 101  13  560
1477480358.258:  -1308 101  13  560
1477480358.258:  -1406 101  13  560
1477480358.258:  -1505 101  13  560
1477480358.261:  -1572 101  13  560
1477480358.261:  -1607 101  13  560
1477480358.262:  -1634 101  13  560
1477480358.265:  -1666 101  13  560
1477480358.266:  -1692 101  13  560
1477480358.269:  -1695 101  13  560
1477480358.270:  -1679 101  13  560
1477480358.278:  -1667 101  13  560
1477480358.278:  -1669 101  13  560
1477480358.278:  -1673 101  13  560
1477480358.278:  -1669 101  13  560
1477480358.283:  -1665 101  13  560
1477480358.283:  -1679 101  13  560
1477480358.284:  -1707 101  13  560
1477480358.289:  -1726 101  13  560
1477480358.300:  -1719 101  13  560
1477480358.525:  -1694 101  13  560
1477480358.525:  -1669 101  13  560
1477480358.525:  -1660 101  13  560
1477480358.526:  -1669 101  13  560
1477480358.526:  -1687 101  13  560
1477480358.526:  -1695 101  13  560
1477480358.527:  -1678 101  13  560
1477480358.527:  -1637 101  13  560
1477480358.527:  -1599 101  13  560
1477480358.527:  -1588 101  13  560
1477480358.527:  -1594 101  13  560
1477480358.528:  -1584 101  13  560
1477480358.528:  -1547 101  13  560
1477480358.540:  -1514 101  13  560
1477480358.541:  -1521 101  13  560
1477480358.542:  -1561 101  13  560
1477480358.542:  -1587 101  13  560
1477480358.543:  -1574 101  13  560
1477480358.544:  -1550 101  13  560
1477480358.545:  -1554 101  13  560
1477480358.546:  -1579 101  13  560
1477480358.546:  -1583 101  13  560
1477480358.550:  -1560 101  13  560
1477480358.562:  -1544 101  13  560
1477480358.562:  -1561 101  13  560
1477480358.562:  -1588 101  13  560
1477480358.562:  -1588 101  13  560
1477480358.562:  -1576 101  13  560
1477480358.562:  -1620 101  13  560
1477480358.563:  -1753 101  13  560
1477480358.563:  -1940 101  13  560
1477480358.563:  -2128 101  13  560
1477480358.563:  -2333 101  13  560
1477480358.564:  -2614 101  13  560
1477480358.564:  -2982 101  13  560
1477480358.564:  -3353 101  13  560
1477480358.564:  -3617 101  13  560
1477480358.564:  -3742 101  13  560
1477480358.565:  -3782 101  13  560
1477480358.565:  -3772 101  13  560
1477480358.565:  -3664 101  13  560
1477480358.565:  -3373 101  13  560
1477480358.566:  -2881 101  13  560
1477480358.566:  -2271 101  13  560
1477480358.566:  -1674 101  13  560
1477480358.566:  -1164 101  13  560
1477480358.566:   -714 101  13  560
1477480358.566:   -228 101  13  560
1477480358.566:    380 101  13  560
1477480358.567:   1104 101  13  560
1477480358.567:   1839 101  13  560
1477480358.567:   2452 101  13  560
1477480358.567:   2882 101  13  560
1477480358.567:   3173 101  13  560
1477480358.567:   3398 101  13  560
1477480358.568:   3573 101  13  560
1477480358.568:   3631 101  13  560
1477480358.568:   3483 101  13  560
1477480358.568:   3109 101  13  560
1477480358.568:   2581 101  13  560
1477480358.569:   2008 117  15  551
1477480358.569:   1479 117  15  551
1477480358.569:   1036 117  15  551
1477480358.570:    684 117  15  551
1477480358.570:    411 117  15  551
1477480358.570:    217 117  15  551
1477480358.570:    101 117  15  551
1477480358.570:     49 117  15  551
1477480358.570:     28 117  15  551
1477480358.571:     12 117  15  551
1477480358.571:     -6 117  15  551
1477480358.571:    -10 117  15  551
1477480358.571:     -9 117  15  551
1477480358.571:    -43 117  15  551
1477480358.571:   -146 117  15  551
1477480358.571:   -293 117  15  551
1477480358.572:   -409 117  15  551
1477480358.572:   -429 117  15  551
1477480358.572:   -364 117  15  551
1477480358.572:   -285 117  15  551
1477480358.573:   -253 117  15  551
1477480358.573:   -274 117  15  551
1477480358.573:   -310 117  15  551
1477480358.573:   -333 117  15  551
1477480358.573:   -348 117  15  551
1477480358.573:   -365 117  15  551
1477480358.574:   -374 117  15  551
1477480358.574:   -357 117  15  551
1477480358.574:   -308 117  15  551
1477480358.574:   -253 117  15  551
1477480358.574:   -219 117  15  551
1477480358.574:   -206 117  15  551
1477480358.575:   -188 117  15  551
1477480358.575:   -149 117  15  551
1477480358.575:   -102 117  15  551
1477480358.576:    -80 117  15  551
1477480358.576:    -93 117  15  551
1477480358.576:   -113 117  15  551
1477480358.576:   -107 117  15  551
1477480358.576:    -78 117  15  551
1477480358.576:    -60 117  15  551
1477480358.576:    -76 117  15  551
1477480358.577:   -112 117  15  551
1477480358.577:   -129 117  15  551
1477480358.577:   -112 117  15  551
1477480358.577:    -84 117  15  551
1477480358.577:    -68 117  15  551
1477480358.577:    -60 117  15  551
1477480358.577:    -32 117  15  551
1477480358.578:     21 117  15  551
1477480358.578:     73 117  15  551
1477480358.578:     97 117  15  551
1477480358.578:     94 117  15  551
1477480358.578:     82 117  15  551
1477480358.578:     72 117  15  551
1477480358.579:     63 117  15  551
1477480358.579:     58 117  15  551
1477480358.579:     70 117  15  551
1477480358.579:    102 117  15  551
1477480358.579:    131 117  15  551
1477480358.579:    134 117  15  551
1477480358.579:    126 117  15  551
1477480358.580:    147 117  15  551
1477480358.580:    212 117  15  551
1477480358.580:    279 117  15  551
1477480358.580:    292 117  15  551
1477480358.580:    248 117  15  551
1477480358.581:    202 117  15  551
1477480358.581:    203 117  15  551
1477480358.581:    239 117  15  551
1477480358.581:    254 117  15  551
1477480358.582:    226 117  15  551
1477480358.582:    182 117  15  551
1477480358.582:    165 117  15  551
1477480358.582:    173 117  15  551
1477480358.583:    167 117  15  551
1477480358.583:    126 117  15  551
1477480358.583:     74 117  15  551
1477480358.583:     45 117  15  551
1477480358.583:     45 117  15  551
1477480358.583:     51 117  15  551
1477480358.603:     49 117  15  551
1477480358.603:     55 117  15  551
1477480358.604:     83 117  15  551
1477480358.604:    127 117  15  551
1477480358.604:    168 117  15  551
1477480358.605:    197 117  15  551
1477480358.605:    225 117  15  551
1477480358.605:    262 117  15  551
1477480358.605:    302 117  15  551
1477480358.605:    332 117  15  551
1477480358.606:    352 117  15  551
1477480358.606:    372 117  15  551
1477480358.606:    402 117  15  551
1477480358.606:    436 117  15  551
1477480358.607:    460 117  15  551
1477480358.607:    460 117  15  551
1477480358.607:    430 117  15  551
1477480358.607:    382 117  15  551
1477480358.608:    337 117  15  551
1477480358.608:    315 117  15  551
1477480358.609:    315 117  15  551
1477480358.609:    317 117  15  551
1477480358.621:    306 117  15  551
1477480358.621:    292 117  15  551
1477480358.622:    293 117  15  551
1477480358.622:    311 117  15  551
1477480358.623:    324 117  15  551
1477480358.624:    316 117  15  551
1477480358.627:    293 117  15  551
1477480358.627:    280 117  15  551
1477480358.628:    291 117  15  551
1477480358.632:    317 117  15  551
1477480358.639:    340 117  15  551
1477480358.639:    352 117  15  551
1477480358.640:    363 117  15  551
1477480358.640:    386 117  15  551
1477480358.640:    416 117  15  551
1477480358.640:    440 117  15  551
1477480358.643:    443 117  15  551
1477480358.645:    434 117  15  551
1477480358.646:    444 117  15  551
1477480358.648:    489 117  15  551
1477480358.658:    557 117  15  551
1477480358.658:    613 117  15  551
1477480358.658:    637 117  15  551
1477480358.659:    644 117  15  551
1477480358.660:    660 117  15  551
1477480358.660:    695 117  15  551
1477480358.662:    732 117  15  551
1477480358.663:    756 117  15  551
1477480358.667:    768 117  15  551
1477480358.668:    780 117  15  551
1477480358.670:    791 117  15  551
1477480358.671:    800 117  15  551
1477480358.679:    806 117  15  551
1477480358.681:    813 117  15  551
1477480358.683:    821 117  15  551
1477480358.683:    825 117  15  551
1477480358.684:    827 117  15  551
1477480358.687:    840 117  15  551
1477480358.701:    868 117  15  551
1477480358.702:    902 117  15  551
1477480358.703:    924 117  15  551
1477480358.703:    933 117  15  551
1477480358.704:    938 117  15  551
1477480358.705:    948 117  15  551
1477480358.706:    960 117  15  551
1477480358.707:    969 117  15  551
1477480358.719:    977 117  15  551
1477480358.719:    989 117  15  551
1477480358.719:   1009 117  15  551
1477480358.719:   1038 117  15  551
1477480358.720:   1072 117  15  551
1477480358.720:   1107 117  15  551
1477480358.720:   1130 117  15  551
1477480358.720:   1139 117  15  551
1477480358.720:   1144 117  15  551
1477480358.720:   1159 117  15  551
1477480358.724:   1183 117  15  551
1477480358.724:   1203 117  15  551
1477480358.726:   1210 117  15  551
1477480358.727:   1223 117  15  551
1477480358.731:   1257 117  15  551
1477480358.731:   1303 117  15  551
1477480358.739:   1335 117  15  551
1477480358.739:   1340 117  15  551
1477480358.739:   1335 117  15  551
1477480358.739:   1343 117  15  551
1477480358.740:   1368 117  15  551
1477480358.745:   1396 117  15  551
1477480358.745:   1419 117  15  551
1477480358.747:   1445 117  15  551
1477480358.748:   1481 117  15  551
1477480358.750:   1526 117  15  551
1477480358.759:   1567 117  15  551
1477480358.759:   1598 117  15  551
1477480358.762:   1619 117  15  551
1477480358.762:   1635 117  15  551
1477480358.762:   1652 117  15  551
1477480358.763:   1671 117  15  551
1477480358.764:   1686 117  15  551
1477480358.767:   1689 117  15  551
1477480358.768:   1675 117  15  551
1477480358.773:   1655 117  15  551
1477480358.773:   1653 117  15  551
1477480358.779:   1678 117  15  551
1477480358.780:   1716 117  15  551
1477480358.782:   1740 117  15  551
1477480358.782:   1738 117  15  551
1477480358.784:   1727 117  15  551
1477480358.784:   1735 117  15  551
1477480358.786:   1775 117  15  551
1477480358.788:   1831 117  15  551
1477480358.791:   1872 117  15  551
1477480358.791:   1882 117  15  551
1477480358.793:   1864 117  15  551
1477480358.796:   1840 117  15  551
1477480358.797:   1834 117  15  551
1477480358.799:   1849 117  15  551
1477480358.800:   1874 117  15  551
1477480358.817:   1897 117  15  551
1477480358.818:   1919 117  15  551
1477480358.819:   1950 117  15  551
1477480358.820:   1993 117  15  551
1477480358.821:   2039 117  15  551
1477480358.821:   2076 117  15  551
1477480358.822:   2105 117  15  551
1477480358.823:   2133 117  15  551
1477480358.824:   2160 117  15  551
1477480358.824:   2171 117  15  551
1477480358.825:   2157 117  15  551
1477480358.828:   2131 117  15  551
1477480358.829:   2121 117  15  551
1477480358.830:   2141 117  15  551
1477480358.832:   2178 117  15  551
1477480358.832:   2204 117  15  551
1477480358.834:   2204 117  15  551
1477480358.835:   2186 117  15  551
1477480358.853:   2168 117  15  551
1477480358.853:   2164 117  15  551
1477480358.853:   2176 117  15  551
1477480358.853:   2200 117  15  551
1477480358.853:   2231 117  15  551
1477480358.854:   2264 117  15  551
1477480358.854:   2291 117  15  551
1477480358.854:   2306 117  15  551
1477480358.854:   2309 117  15  551
1477480358.861:   2300 117  15  551
1477480358.862:   2283 117  15  551
1477480358.862:   2263 117  15  551
1477480358.862:   2239 117  15  551
1477480358.863:   2207 117  15  551
1477480358.865:   2161 117  15  551
1477480358.868:   2108 117  15  551
1477480358.869:   2067 117  15  551
1477480358.872:   2061 117  15  551
1477480359.090:   2091 117  15  551
1477480359.090:   2132 117  15  551
1477480359.091:   2148 117  15  551
1477480359.091:   2121 122  16  546
1477480359.091:   2068 122  16  546
1477480359.091:   2025 122  16  546
1477480359.091:   2018 122  16  546
1477480359.092:   2035 122  16  546
1477480359.092:   2041 122  16  546
1477480359.092:   2017 122  16  546
1477480359.092:   1974 122  16  546
1477480359.092:   1948 122  16  546
1477480359.092:   1962 122  16  546
1477480359.093:   2008 122  16  546
1477480359.093:   2060 122  16  546
1477480359.093:   2103 122  16  546
1477480359.093:   2142 122  16  546
1477480359.093:   2186 122  16  546
1477480359.093:   2231 122  16  546
1477480359.094:   2271 122  16  546
1477480359.094:   2308 122  16  546
1477480359.094:   2350 122  16  546
1477480359.094:   2390 122  16  546
1477480359.094:   2406 122  16  546
1477480359.094:   2394 122  16  546
1477480359.095:   2379 122  16  546
1477480359.095:   2396 122  16  546
1477480359.095:   2447 122  16  546
1477480359.095:   2488 122  16  546
1477480359.095:   2481 122  16  546
1477480359.095:   2435 122  16  546
1477480359.096:   2393 122  16  546
1477480359.096:   2377 122  16  546
1477480359.096:   2365 122  16  546
1477480359.096:   2322 122  16  546
1477480359.096:   2253 122  16  546
1477480359.096:   2205 122  16  546
1477480359.097:   2211 122  16  546
1477480359.097:   2255 122  16  546
1477480359.097:   2291 122  16  546
1477480359.097:   2294 122  16  546
1477480359.098:   2276 122  16  546
1477480359.098:   2257 122  16  546
1477480359.098:   2243 122  16  546
1477480359.098:   2221 122  16  546
1477480359.098:   2187 122  16  546
1477480359.099:   2153 122  16  546
1477480359.099:   2127 122  16  546
1477480359.099:   2107 122  16  546
1477480359.099:   2083 122  16  546
1477480359.099:   2054 122  16  546
1477480359.099:   2032 122  16  546
1477480359.100:   2022 122  16  546
1477480359.100:   2008 122  16  546
1477480359.100:   1975 122  16  546
1477480359.100:   1917 122  16  546
1477480359.100:   1855 122  16  546
1477480359.100:   1808 122  16  546
1477480359.101:   1780 122  16  546
1477480359.101:   1762 122  16  546
1477480359.101:   1743 122  16  546
1477480359.101:   1723 122  16  546
1477480359.101:   1695 122  16  546
1477480359.101:   1646 122  16  546
1477480359.102:   1570 122  16  546
1477480359.102:   1487 122  16  546
1477480359.102:   1410 122  16  546
1477480359.102:   1305 122  16  546
1477480359.102:   1096 122  16  546
1477480359.102:    752 122  16  546
1477480359.102:    341 122  16  546
1477480359.102:    -13 122  16  546
1477480359.103:   -270 122  16  546
1477480359.103:   -509 122  16  546
1477480359.103:   -802 122  16  546
1477480359.103:  -1077 122  16  546
1477480359.103:  -1150 122  16  546
1477480359.103:   -907 122  16  546
1477480359.103:   -436 122  16  546
1477480359.104:     63 122  16  546
1477480359.104:    484 122  16  546
1477480359.104:    907 122  16  546
1477480359.104:   1476 122  16  546
1477480359.104:   2241 122  16  546
1477480359.105:   3119 122  16  546
1477480359.105:   3974 122  16  546
1477480359.105:   4715 122  16  546
1477480359.106:   5308 122  16  546
1477480359.106:   5750 122  16  546
1477480359.106:   6049 122  16  546
1477480359.123:   6210 122  16  546
1477480359.123:   6220 122  16  546
1477480359.123:   6048 122  16  546
1477480359.124:   5682 122  16  546
1477480359.124:   5157 122  16  546
1477480359.125:   4549 122  16  546
1477480359.125:   3934 122  16  546
1477480359.125:   3380 122  16  546
1477480359.125:   2939 122  16  546
1477480359.126:   2645 122  16  546
1477480359.127:   2489 122  16  546
1477480359.128:   2406 122  16  546
1477480359.129:   2321 122  16  546
1477480359.130:   2210 122  16  546
1477480359.130:   2108 122  16  546
1477480359.131:   2051 122  16  546
1477480359.151:   2025 122  16  546
1477480359.152:   1979 122  16  546
1477480359.152:   1872 122  16  546
1477480359.152:   1716 122  16  546
1477480359.152:   1556 122  16  546
1477480359.152:   1440 122  16  546
1477480359.152:   1397 122  16  546
1477480359.152:   1425 122  16  546
1477480359.153:   1491 122  16  546
1477480359.153:   1549 122  16  546
1477480359.153:   1565 122  16  546
1477480359.153:   1538 122  16  546
1477480359.153:   1493 122  16  546
1477480359.153:   1466 122  16  546
1477480359.153:   1466 122  16  546
1477480359.154:   1480 122  16  546
1477480359.154:   1490 122  16  546
1477480359.154:   1488 122  16  546
1477480359.154:   1483 122  16  546
1477480359.154:   1484 122  16  546
1477480359.154:   1490 122  16  546
1477480359.154:   1489 122  16  546
1477480359.154:   1475 122  16  546
1477480359.155:   1454 122  16  546
1477480359.155:   1447 122  16  546
1477480359.155:   1469 122  16  546
1477480359.155:   1513 122  16  546
1477480359.155:   1556 122  16  546
1477480359.155:   1570 122  16  546
1477480359.156:   1549 122  16  546
1477480359.156:   1514 122  16  546
1477480359.156:   1494 122  16  546
1477480359.156:   1506 122  16  546
1477480359.156:   1541 122  16  546
1477480359.156:   1572 122  16  546
1477480359.156:   1586 122  16  546
1477480359.157:   1591 122  16  546
1477480359.159:   1607 122  16  546
1477480359.160:   1632 122  16  546
1477480359.161:   1648 122  16  546
1477480359.161:   1631 122  16  546
1477480359.165:   1590 122  16  546
1477480359.177:   1556 122  16  546
1477480359.178:   1549 122  16  546
1477480359.178:   1555 122  16  546
1477480359.180:   1542 122  16  546
1477480359.181:   1496 122  16  546
1477480359.182:   1432 122  16  546
1477480359.183:   1382 122  16  546
1477480359.184:   1358 122  16  546
1477480359.185:   1348 122  16  546
1477480359.187:   1333 122  16  546
1477480359.188:   1306 122  16  546
1477480359.188:   1272 122  16  546
1477480359.189:   1239 122  16  546
1477480359.192:   1212 122  16  546
1477480359.193:   1195 122  16  546
1477480359.194:   1187 122  16  546
1477480359.195:   1172 122  16  546
1477480359.196:   1135 122  16  546
1477480359.202:   1073 122  16  546
1477480359.202:   1004 122  16  546
1477480359.203:    955 122  16  546
1477480359.205:    934 122  16  546
1477480359.206:    921 122  16  546
1477480359.211:    896 122  16  546
1477480359.211:    858 122  16  546
1477480359.212:    822 122  16  546
1477480359.240:    796 122  16  546
1477480359.240:    775 122  16  546
1477480359.241:    744 122  16  546
1477480359.242:    705 122  16  546
1477480359.242:    672 122  16  546
1477480359.242:    653 122  16  546
1477480359.243:    638 122  16  546
1477480359.243:    606 122  16  546
1477480359.244:    554 122  16  546
1477480359.244:    498 122  16  546
1477480359.245:    453 122  16  546
1477480359.245:    417 122  16  546
1477480359.245:    373 122  16  546
1477480359.246:    314 122  16  546
1477480359.246:    255 122  16  546
1477480359.249:    210 122  16  546
1477480359.249:    182 122  16  546
1477480359.249:    149 122  16  546
1477480359.250:     99 122  16  546
1477480359.251:     44 122  16  546
1477480359.277:      3 122  16  546
1477480359.277:    -31 122  16  546
1477480359.278:    -89 122  16  546
1477480359.280:   -188 122  16  546
1477480359.283:   -305 122  16  546
1477480359.283:   -394 122  16  546
1477480359.284:   -438 122  16  546
1477480359.285:   -466 122  16  546
1477480359.285:   -522 122  16  546
1477480359.286:   -608 122  16  546
1477480359.287:   -684 122  16  546
1477480359.287:   -712 122  16  546
1477480359.288:   -704 122  16  546
1477480359.289:   -699 122  16  546
1477480359.294:   -720 122  16  546
1477480359.294:   -743 122  16  546
1477480359.306:   -736 122  16  546
1477480359.310:   -697 122  16  546
1477480359.312:   -658 122  16  546
1477480359.312:   -644 122  16  546
1477480359.313:   -647 122  16  546
1477480359.314:   -636 122  16  546
1477480359.315:   -600 136  18  526
1477480359.316:   -556 136  18  526
1477480359.326:   -524 136  18  526
1477480359.327:   -502 136  18  526
1477480359.328:   -474 136  18  526
1477480359.328:   -422 136  18  526
1477480359.329:   -350 136  18  526
1477480359.329:   -271 136  18  526
1477480359.330:   -195 136  18  526
1477480359.330:   -130 136  18  526
1477480359.331:    -83 136  18  526
1477480359.331:    -57 136  18  526
1477480359.332:    -37 136  18  526
1477480359.333:     -2 136  18  526
1477480359.333:     55 136  18  526
1477480359.334:    109 136  18  526
1477480359.345:    135 136  18  526
1477480359.346:    136 136  18  526
1477480359.347:    140 136  18  526
1477480359.348:    164 136  18  526
1477480359.352:    188 136  18  526
1477480359.353:    192 136  18  526
1477480359.354:    184 136  18  526
1477480359.354:    198 136  18  526
1477480359.355:    245 136  18  526
1477480359.356:    292 136  18  526
1477480359.360:    306 136  18  526
1477480359.360:    293 136  18  526
1477480359.360:    293 136  18  526
1477480359.360:    326 136  18  526
1477480359.361:    363 136  18  526
1477480359.361:    369 136  18  526
1477480359.362:    342 136  18  526
1477480359.362:    316 136  18  526
1477480359.364:    315 136  18  526
1477480359.366:    328 136  18  526
1477480359.368:    331 136  18  526
1477480359.370:    321 136  18  526
1477480359.384:    311 136  18  526
1477480359.384:    309 136  18  526
1477480359.384:    306 136  18  526
1477480359.385:    293 136  18  526
1477480359.385:    274 136  18  526
1477480359.385:    261 136  18  526
1477480359.385:    261 136  18  526
1477480359.385:    272 136  18  526
1477480359.389:    283 136  18  526
1477480359.390:    286 136  18  526
1477480359.394:    277 136  18  526
1477480359.394:    260 136  18  526
1477480359.395:    245 136  18  526
1477480359.396:    237 136  18  526
1477480359.402:    237 136  18  526
1477480359.403:    240 136  18  526
1477480359.404:    243 136  18  526
1477480359.406:    247 136  18  526
1477480359.422:    251 136  18  526
1477480359.422:    254 136  18  526
1477480359.423:    256 136  18  526
1477480359.424:    258 136  18  526
1477480359.425:    252 136  18  526
1477480359.425:    230 136  18  526
1477480359.426:    191 136  18  526
1477480359.427:    153 136  18  526
1477480359.427:    138 136  18  526
1477480359.428:    151 136  18  526
1477480359.429:    170 136  18  526
1477480359.430:    180 136  18  526
1477480359.431:    184 136  18  526
1477480359.435:    199 136  18  526
1477480359.445:    231 136  18  526
1477480359.446:    262 136  18  526
1477480359.447:    272 136  18  526
1477480359.448:    257 136  18  526
1477480359.449:    235 136  18  526
1477480359.449:    223 136  18  526
1477480359.450:    224 136  18  526
1477480359.450:    227 136  18  526
1477480359.454:    225 136  18  526
1477480359.455:    219 136  18  526
1477480359.464:    219 136  18  526
1477480359.465:    232 136  18  526
1477480359.467:    258 136  18  526
1477480359.468:    288 136  18  526
1477480359.469:    309 136  18  526
1477480359.470:    319 136  18  526
1477480359.471:    328 136  18  526
1477480359.474:    350 136  18  526
1477480359.483:    385 136  18  526
1477480359.483:    419 136  18  526
1477480359.484:    436 136  18  526
1477480359.485:    436 136  18  526
1477480359.486:    429 136  18  526
1477480359.486:    431 136  18  526
1477480359.515:    445 136  18  526
1477480359.516:    469 136  18  526
1477480359.522:    498 136  18  526
1477480359.526:    528 136  18  526
1477480359.528:    551 136  18  526
1477480359.529:    565 136  18  526
1477480359.530:    573 136  18  526
1477480359.531:    582 136  18  526
1477480359.541:    597 136  18  526
1477480359.542:    606 136  18  526
1477480359.543:    601 136  18  526
1477480359.543:    584 136  18  526
1477480359.544:    574 136  18  526
1477480359.545:    583 136  18  526
1477480359.545:    606 136  18  526
1477480359.546:    627 136  18  526
1477480359.547:    640 136  18  526
1477480359.549:    646 136  18  526
1477480359.570:    648 136  18  526
1477480359.571:    637 136  18  526
1477480359.571:    612 136  18  526
1477480359.571:    585 136  18  526
1477480359.571:    570 136  18  526
1477480359.572:    561 136  18  526
1477480359.572:    532 136  18  526
1477480359.572:    473 136  18  526
1477480359.572:    406 136  18  526
1477480359.573:    359 136  18  526
1477480359.573:    329 136  18  526
1477480359.573:    291 136  18  526
1477480359.573:    237 136  18  526
1477480359.574:    204 136  18  526
1477480359.574:    216 136  18  526
1477480359.574:    225 136  18  526
1477480359.574:    136 136  18  526
1477480359.575:    -93 136  18  526
1477480359.575:   -397 136  18  526
1477480359.575:   -672 136  18  526
1477480359.575:   -895 136  18  526
1477480359.576:  -1151 136  18  526
1477480359.576:  -1510 136  18  526
1477480359.576:  -1912 136  18  526
1477480359.576:  -2187 136  18  526
1477480359.576:  -2199 136  18  526
1477480359.577:  -1957 136  18  526
1477480359.577:  -1568 136  18  526
1477480359.577:  -1126 136  18  526
1477480359.577:   -637 136  18  526
1477480359.578:    -48 136  18  526
1477480359.579:    701 136  18  526
1477480359.582:   1628 136  18  526
1477480359.583:   2681 136  18  526
1477480359.586:   3730 136  18  526
1477480359.586:   4614 136  18  526
1477480359.588:   5229 136  18  526
1477480359.590:   5584 136  18  526
1477480359.601:   5753 136  18  526
1477480359.603:   5773 136  18  526
1477480359.603:   5611 136  18  526
1477480359.604:   5224 136  18  526
1477480359.606:   4640 136  18  526
1477480359.607:   3955 136  18  526
1477480359.619:   3269 136  18  526
1477480359.697:   2642 136  18  526
1477480359.698:   2121 136  18  526
1477480359.698:   1752 136  18  526
1477480359.698:   1553 136  18  526
1477480359.699:   1475 136  18  526
1477480359.699:   1423 136  18  526
1477480359.699:   1337 136  18  526
1477480359.699:   1239 136  18  526
1477480359.699:   1180 136  18  526
1477480359.701:   1174 136  18  526
1477480359.701:   1170 136  18  526
1477480359.701:   1116 136  18  526
1477480359.702:   1000 136  18  526
1477480359.702:    866 136  18  526
1477480359.702:    763 136  18  526
1477480359.702:    708 136  18  526
1477480359.703:    695 136  18  526
1477480359.703:    705 136  18  526
1477480359.703:    721 136  18  526
1477480359.703:    727 136  18  526
1477480359.703:    713 136  18  526
1477480359.703:    678 136  18  526
1477480359.703:    633 136  18  526
1477480359.704:    597 136  18  526
1477480359.704:    589 136  18  526
1477480359.704:    615 136  18  526
1477480359.704:    671 136  18  526
1477480359.705:    738 136  18  526
1477480359.705:    788 136  18  526
1477480359.705:    801 136  18  526
1477480359.705:    786 136  18  526
1477480359.705:    768 136  18  526
1477480359.705:    771 136  18  526
1477480359.706:    790 136  18  526
1477480359.706:    805 136  18  526
1477480359.706:    805 136  18  526
1477480359.706:    801 136  18  526
1477480359.706:    810 136  18  526
1477480359.706:    831 136  18  526
1477480359.707:    853 136  18  526
1477480359.707:    862 136  18  526
1477480359.707:    862 136  18  526
1477480359.707:    864 136  18  526
1477480359.707:    872 136  18  526
1477480359.707:    884 136  18  526
1477480359.708:    889 136  18  526
1477480359.709:    883 136  18  526
1477480359.709:    863 136  18  526
1477480359.709:    838 136  18  526
1477480359.709:    823 136  18  526
1477480359.709:    826 136  18  526
1477480359.709:    840 136  18  526
1477480359.710:    844 136  18  526
1477480359.710:    832 136  18  526
1477480359.711:    817 136  18  526
1477480359.728:    818 136  18  526
1477480359.729:    832 136  18  526
1477480359.730:    834 136  18  526
1477480359.730:    803 136  18  526
1477480359.730:    747 136  18  526
1477480359.731:    696 136  18  526
1477480359.731:    670 136  18  526
1477480359.733:    662 136  18  526
1477480359.734:    649 136  18  526
1477480359.734:    623 136  18  526
1477480359.738:    595 136  18  526
1477480359.739:    578 136  18  526
1477480359.747:    576 136  18  526
1477480359.749:    575 136  18  526
1477480359.749:    561 136  18  526
1477480359.750:    533 136  18  526
1477480359.750:    508 136  18  526
1477480359.751:    501 136  18  526
1477480359.751:    507 136  18  526
1477480359.752:    502 136  18  526
1477480359.753:    466 136  18  526
1477480359.755:    403 136  18  526
1477480359.790:    341 136  18  526
1477480359.790:    301 136  18  526
1477480359.791:    281 136  18  526
1477480359.791:    263 136  18  526
1477480359.791:    237 136  18  526
1477480359.791:    209 136  18  526
1477480359.791:    190 136  18  526
1477480359.792:    179 136  18  526
1477480359.792:    165 136  18  526
1477480359.792:    138 136  18  526
1477480359.792:     97 136  18  526
1477480359.792:     50 136  18  526
1477480359.793:      5 136  18  526
1477480359.793:    -29 136  18  526
1477480359.793:    -48 136  18  526
1477480359.793:    -59 136  18  526
1477480359.793:    -71 136  18  526
1477480359.797:    -86 136  18  526
1477480359.798:    -97 136  18  526
1477480359.798:   -102 136  18  526
1477480359.798:   -114 136  18  526
1477480359.799:   -144 136  18  526
1477480359.801:   -193 136  18  526
1477480359.808:   -240 136  18  526
1477480359.809:   -264 136  18  526
1477480359.810:   -267 136  18  526
1477480359.810:   -262 136  18  526
1477480359.811:   -262 136  18  526
1477480359.815:   -267 136  18  526
1477480359.815:   -276 136  18  526
1477480359.819:   -289 136  18  526
1477480359.820:   -306 136  18  526
1477480359.831:   -315 136  18  526
1477480359.831:   -307 136  18  526
1477480359.832:   -287 136  18  526
1477480359.832:   -275 136  18  526
1477480359.832:   -280 136  18  526
1477480359.837:   -294 136  18  526
1477480359.837:   -293 136  18  526
1477480359.838:   -268 136  18  526
1477480359.838:   -232 136  18  526
1477480359.838:   -204 136  18  526
1477480359.839:   -189 136  18  526
1477480359.842:   -178 136  18  526
1477480359.851:   -151 136  18  526
1477480359.851:   -101 136  18  526
1477480359.851:    -32 136  18  526
1477480359.851:     41 136  18  526
1477480359.852:    100 136  18  526
1477480359.853:    144 136  18  526
1477480359.854:    185 136  18  526
1477480359.858:    238 136  18  526
1477480359.859:    302 136  18  526
1477480359.860:    360 136  18  526
1477480359.869:    401 136  18  526
1477480359.870:    429 136  18  526
1477480359.871:    462 136  18  526
1477480359.872:    504 136  18  526
1477480359.872:    543 136  18  526
1477480359.874:    563 136  18  526
1477480359.879:    563 136  18  526
1477480359.879:    556 136  18  526
1477480359.886:    548 136  18  526
1477480359.887:    530 136  18  526
1477480359.888:    493 136  18  526
1477480359.889:    447 136  18  526
1477480359.889:    412 136  18  526
1477480359.890:    396 136  18  526
1477480359.896:    386 136  18  526
1477480359.897:    362 136  18  526
1477480359.903:    329 136  18  526
1477480359.904:    309 136  18  526
1477480359.905:    315 136  18  526
1477480359.905:    337 136  18  526
1477480359.907:    350 136  18  526
1477480359.908:    344 136  18  526
1477480359.909:    330 136  18  526
1477480359.913:    329 136  18  526
1477480359.921:    347 136  18  526
1477480359.922:    374 136  18  526
1477480359.923:    393 136  18  526
1477480359.923:    395 136  18  526
1477480359.925:    382 136  18  526
1477480359.925:    369 136  18  526
1477480359.926:    374 136  18  526
1477480359.926:    395 136  18  526
1477480359.927:    416 136  18  526
1477480359.928:    418 136  18  526
1477480359.937:    398 136  18  526
1477480359.938:    377 136  18  526
1477480359.939:    372 136  18  526
1477480359.940:    379 136  18  526
1477480359.941:    381 136  18  526
1477480359.945:    365 136  18  526
1477480359.946:    341 136  18  526
1477480359.949:    334 136  18  526
1477480359.951:    352 136  18  526
1477480359.951:    382 136  18  526
1477480359.953:    401 126  16  553
1477480359.954:    402 126  16  553
1477480359.954:    400 126  16  553
1477480359.956:    403 126  16  553
1477480359.957:    400 126  16  553
1477480359.959:    374 126  16  553
1477480359.960:    327 126  16  553
1477480359.964:    286 126  16  553
1477480359.965:    273 126  16  553
1477480359.966:    277 126  16  553
1477480359.981:    271 126  16  553
1477480359.983:    242 126  16  553
1477480359.984:    203 126  16  553
1477480359.984:    160 126  16  553
1477480359.985:     93 126  16  553
1477480359.986:    -29 126  16  553
1477480359.986:   -220 126  16  553
1477480359.987:   -473 126  16  553
1477480359.989:   -783 126  16  553
1477480359.992:  -1153 126  16  553
1477480360.001:  -1560 126  16  553
1477480360.002:  -1953 126  16  553
1477480360.003:  -2275 126  16  553
1477480360.003:  -2499 126  16  553
1477480360.004:  -2610 126  16  553
1477480360.005:  -2568 126  16  553
1477480360.006:  -2305 126  16  553
1477480360.006:  -1781 126  16  553
1477480360.007:  -1052 126  16  553
1477480360.008:   -256 126  16  553
1477480360.009:    483 126  16  553
1477480360.013:   1150 126  16  553
1477480360.019:   1827 126  16  553
1477480360.020:   2595 126  16  553
1477480360.021:   3431 126  16  553
1477480360.021:   4200 126  16  553
1477480360.022:   4761 126  16  553
1477480360.023:   5075 126  16  553
1477480360.024:   5226 126  16  553
1477480360.029:   5323 126  16  553
1477480360.037:   5394 126  16  553
1477480360.038:   5361 126  16  553
1477480360.042:   5135 126  16  553
1477480360.043:   4700 126  16  553
1477480360.043:   4135 126  16  553
1477480360.044:   3541 126  16  553
1477480360.055:   2983 126  16  553
1477480360.056:   2493 126  16  553
1477480360.056:   2093 126  16  553
1477480360.057:   1799 126  16  553
1477480360.058:   1599 126  16  553
1477480360.059:   1456 126  16  553
1477480360.060:   1339 126  16  553
1477480360.061:   1250 126  16  553
1477480360.062:   1209 126  16  553
1477480360.063:   1212 126  16  553
1477480360.073:   1220 126  16  553
1477480360.073:   1183 126  16  553
1477480360.074:   1085 126  16  553
1477480360.075:    949 126  16  553
1477480360.076:    822 126  16  553
1477480360.076:    742 126  16  553
1477480360.077:    720 126  16  553
1477480360.078:    745 126  16  553
1477480360.078:    781 126  16  553
1477480360.079:    788 126  16  553
1477480360.080:    748 126  16  553
1477480360.080:    674 126  16  553
1477480360.090:    595 126  16  553
1477480360.091:    532 126  16  553
1477480360.092:    489 126  16  553
1477480360.093:    467 126  16  553
1477480360.093:    467 126  16  553
1477480360.094:    488 126  16  553
1477480360.095:    515 126  16  553
1477480360.096:    528 126  16  553
1477480360.108:    521 126  16  553
1477480360.111:    506 126  16  553
1477480360.112:    497 126  16  553
1477480360.112:    495 126  16  553
1477480360.113:    491 126  16  553
1477480360.114:    492 126  16  553
1477480360.115:    507 126  16  553
1477480360.115:    531 126  16  553
1477480360.118:    545 126  16  553
1477480360.118:    537 126  16  553
1477480360.119:    510 126  16  553
1477480360.120:    480 126  16  553
1477480360.122:    447 126  16  553
1477480360.124:    413 126  16  553
1477480360.125:    381 126  16  553
1477480360.130:    363 126  16  553
1477480360.141:    354 126  16  553
1477480360.142:    337 126  16  553
1477480360.142:    301 126  16  553
1477480360.142:    257 126  16  553
1477480360.143:    221 126  16  553
1477480360.143:    191 126  16  553
1477480360.145:    153 126  16  553
1477480360.146:    113 126  16  553
1477480360.147:     90 126  16  553
1477480360.148:     91 126  16  553
1477480360.149:     85 126  16  553
1477480360.150:     40 126  16  553
1477480360.163:    -33 126  16  553
1477480360.163:    -86 126  16  553
1477480360.163:    -96 126  16  553
1477480360.163:    -92 126  16  553
1477480360.163:   -123 126  16  553
1477480360.163:   -195 126  16  553
1477480360.166:   -261 126  16  553
1477480360.166:   -275 126  16  553
1477480360.170:   -244 126  16  553
1477480360.170:   -216 126  16  553
1477480360.178:   -230 126  16  553
1477480360.180:   -282 126  16  553
1477480360.181:   -345 126  16  553
1477480360.182:   -398 126  16  553
1477480360.183:   -442 126  16  553
1477480360.185:   -490 126  16  553
1477480360.187:   -548 126  16  553
1477480360.189:   -609 126  16  553
1477480360.189:   -663 126  16  553
1477480360.191:   -696 126  16  553
1477480360.207:   -711 126  16  553
1477480360.208:   -714 126  16  553
1477480360.209:   -715 126  16  553
1477480360.209:   -712 126  16  553
1477480360.210:   -709 126  16  553
1477480360.211:   -709 126  16  553
1477480360.212:   -716 126  16  553
1477480360.213:   -731 126  16  553
1477480360.214:   -741 126  16  553
1477480360.215:   -748 126  16  553
1477480360.216:   -765 126  16  553
1477480360.217:   -802 126  16  553
1477480360.228:   -856 126  16  553
1477480360.228:   -904 126  16  553
1477480360.228:   -930 126  16  553
1477480360.228:   -937 126  16  553
1477480360.229:   -943 126  16  553
1477480360.229:   -953 126  16  553
1477480360.229:   -958 126  16  553
1477480360.231:   -948 126  16  553
1477480360.233:   -926 126  16  553
1477480360.234:   -909 126  16  553
1477480360.239:   -907 126  16  553
1477480360.239:   -917 126  16  553
1477480360.240:   -932 126  16  553
1477480360.245:   -951 126  16  553
1477480360.246:   -970 126  16  553
1477480360.246:   -986 126  16  553
1477480360.248:   -996 126  16  553
1477480360.255:  -1006 126  16  553
1477480360.334:  -1025 126  16  553
1477480360.334:  -1051 126  16  553
1477480360.334:  -1072 126  16  553
1477480360.335:  -1081 126  16  553
1477480360.335:  -1092 126  16  553
1477480360.335:  -1120 126  16  553
1477480360.335:  -1162 126  16  553
1477480360.335:  -1193 126  16  553
1477480360.336:  -1189 126  16  553
1477480360.336:  -1162 126  16  553
1477480360.336:  -1147 126  16  553
1477480360.336:  -1166 126  16  553
1477480360.336:  -1203 126  16  553
1477480360.337:  -1224 126  16  553
1477480360.337:  -1213 126  16  553
1477480360.337:  -1189 126  16  553
1477480360.363:  -1178 126  16  553
1477480360.363:  -1182 126  16  553
1477480360.363:  -1180 126  16  553
1477480360.364:  -1156 126  16  553
1477480360.364:  -1111 126  16  553
1477480360.364:  -1068 126  16  553
1477480360.365:  -1045 126  16  553
1477480360.365:  -1042 126  16  553
1477480360.366:  -1049 126  16  553
1477480360.367:  -1059 126  16  553
1477480360.367:  -1066 126  16  553
1477480360.367:  -1071 126  16  553
1477480360.367:  -1071 126  16  553
1477480360.368:  -1060 126  16  553
1477480360.368:  -1041 126  16  553
1477480360.368:  -1016 126  16  553
1477480360.369:   -992 126  16  553
1477480360.369:   -974 126  16  553
1477480360.369:   -961 126  16  553
1477480360.369:   -943 126  16  553
1477480360.370:   -918 126  16  553
1477480360.370:   -891 126  16  553
1477480360.370:   -875 126  16  553
1477480360.370:   -875 126  16  553
1477480360.371:   -875 126  16  553
1477480360.371:   -860 126  16  553
1477480360.371:   -826 126  16  553
1477480360.372:   -793 126  16  553
1477480360.372:   -781 126  16  553
1477480360.372:   -787 126  16  553
1477480360.372:   -788 126  16  553
1477480360.373:   -764 126  16  553
1477480360.373:   -718 126  16  553
1477480360.373:   -673 126  16  553
1477480360.389:   -641 126  16  553
1477480360.389:   -623 126  16  553
1477480360.390:   -608 126  16  553
1477480360.390:   -588 126  16  553
1477480360.391:   -565 126  16  553
1477480360.391:   -551 126  16  553
1477480360.391:   -550 126  16  553
1477480360.392:   -558 126  16  553
1477480360.392:   -561 126  16  553
1477480360.393:   -547 126  16  553
1477480360.393:   -526 126  16  553
1477480360.393:   -519 126  16  553
1477480360.393:   -527 126  16  553
1477480360.394:   -535 126  16  553
1477480360.394:   -525 126  16  553
1477480360.395:   -500 126  16  553
1477480360.395:   -481 126  16  553
1477480360.395:   -478 126  16  553
1477480360.395:   -478 126  16  553
1477480360.396:   -458 126  16  553
1477480360.396:   -421 126  16  553
1477480360.396:   -389 126  16  553
1477480360.398:   -382 126  16  553
1477480360.398:   -395 126  16  553
1477480360.399:   -408 126  16  553
1477480360.399:   -411 126  16  553
1477480360.400:   -411 126  16  553
1477480360.401:   -420 126  16  553
1477480360.404:   -430 126  16  553
1477480360.406:   -423 126  16  553
1477480360.422:   -390 126  16  553
1477480360.423:   -340 126  16  553
1477480360.423:   -300 126  16  553
1477480360.424:   -287 126  16  553
1477480360.425:   -295 126  16  553
1477480360.426:   -302 126  16  553
1477480360.426:   -288 126  16  553
1477480360.427:   -258 126  16  553
1477480360.428:   -233 126  16  553
1477480360.428:   -223 126  16  553
1477480360.429:   -223 126  16  553
1477480360.430:   -213 126  16  553
1477480360.443:   -187 126  16  553
1477480360.444:   -156 126  16  553
1477480360.444:   -137 126  16  553
1477480360.445:   -138 126  16  553
1477480360.446:   -151 126  16  553
1477480360.446:   -161 126  16  553
1477480360.447:   -162 126  16  553
1477480360.449:   -156 126  16  553
1477480360.450:   -149 126  16  553
1477480360.451:   -143 126  16  553
1477480360.463:   -135 126  16  553
1477480360.463:   -123 126  16  553
1477480360.463:   -113 126  16  553
1477480360.463:   -113 126  16  553
1477480360.463:   -124 126  16  553
1477480360.463:   -138 126  16  553
1477480360.464:   -145 126  16  553
1477480360.465:   -141 126  16  553
1477480360.466:   -132 126  16  553
1477480360.469:   -122 126  16  553
1477480360.471:   -113 126  16  553
1477480360.476:   -101 126  16  553
1477480360.485:    -85 126  16  553
1477480360.485:    -70 126  16  553
1477480360.485:    -56 126  16  553
1477480360.486:    -39 126  16  553
1477480360.486:    -16 126  16  553
1477480360.486:     10 126  16  553
1477480360.487:     36 126  16  553
1477480360.488:     60 126  16  553
1477480360.489:     88 126  16  553
1477480360.526:    119 126  16  553
1477480360.526:    145 117  15  530
1477480360.527:    157 117  15  530
1477480360.528:    154 117  15  530
1477480360.528:    144 117  15  530
1477480360.528:    139 117  15  530
1477480360.529:    144 117  15  530
1477480360.529:    148 117  15  530
1477480360.529:    146 117  15  530
1477480360.529:    147 117  15  530
1477480360.532:    157 117  15  530
1477480360.556:    164 117  15  530
1477480360.557:    147 117  15  530
1477480360.557:    106 117  15  530
1477480360.557:     67 117  15  530
1477480360.557:     47 117  15  530
1477480360.558:     23 117  15  530
1477480360.558:    -41 117  15  530
1477480360.558:   -137 117  15  530
1477480360.558:   -213 117  15  530
1477480360.558:   -250 117  15  530
1477480360.559:   -320 117  15  530
1477480360.559:   -523 117  15  530
1477480360.560:   -868 117  15  530
1477480360.560:  -1249 117  15  530
1477480360.560:  -1558 117  15  530
1477480360.561:  -1801 117  15  530
1477480360.561:  -2037 117  15  530
1477480360.561:  -2244 117  15  530
1477480360.561:  -2280 117  15  530
1477480360.561:  -2022 117  15  530
1477480360.562:  -1512 117  15  530
1477480360.562:   -927 117  15  530
1477480360.562:   -413 117  15  530
1477480360.564:     40 117  15  530
1477480360.564:    542 117  15  530
1477480360.564:   1167 117  15  530
1477480360.565:   1890 117  15  530
1477480360.566:   2614 117  15  530
1477480360.568:   3244 117  15  530
1477480360.571:   3730 117  15  530
1477480360.581:   4082 117  15  530
1477480360.582:   4350 117  15  530
1477480360.582:   4581 117  15  530
1477480360.582:   4760 117  15  530
1477480360.582:   4807 117  15  530
1477480360.582:   4646 117  15  530
1477480360.585:   4282 117  15  530
1477480360.586:   3806 117  15  530
1477480360.595:   3324 117  15  530
1477480360.595:   2889 117  15  530
1477480360.604:   2504 117  15  530
1477480360.605:   2163 117  15  530
1477480360.605:   1876 117  15  530
1477480360.605:   1662 117  15  530
1477480360.605:   1526 117  15  530
1477480360.605:   1455 117  15  530
1477480360.605:   1435 117  15  530
1477480360.606:   1457 117  15  530
1477480360.609:   1500 117  15  530
1477480360.611:   1531 117  15  530
1477480360.613:   1513 117  15  530
1477480360.614:   1428 117  15  530
1477480360.616:   1304 117  15  530
1477480360.617:   1194 117  15  530
1477480360.628:   1145 117  15  530
1477480360.628:   1162 117  15  530
1477480360.628:   1223 117  15  530
1477480360.628:   1291 117  15  530
1477480360.628:   1340 117  15  530
1477480360.632:   1355 117  15  530
1477480360.632:   1324 117  15  530
1477480360.635:   1255 117  15  530
1477480360.636:   1179 117  15  530
1477480360.637:   1132 117  15  530
1477480360.649:   1131 117  15  530
1477480360.649:   1161 117  15  530
1477480360.650:   1200 117  15  530
1477480360.650:   1235 117  15  530
1477480360.650:   1264 117  15  530
1477480360.650:   1282 117  15  530
1477480360.651:   1280 117  15  530
1477480360.653:   1259 117  15  530
1477480360.659:   1236 117  15  530
1477480360.660:   1229 117  15  530
1477480360.670:   1237 117  15  530
1477480360.670:   1248 117  15  530
1477480360.670:   1260 117  15  530
1477480360.670:   1277 117  15  530
1477480360.671:   1305 117  15  530
1477480360.672:   1331 117  15  530
1477480360.673:   1345 117  15  530
1477480360.680:   1347 117  15  530
1477480360.680:   1347 117  15  530
1477480360.681:   1347 117  15  530
1477480360.681:   1338 117  15  530
1477480360.682:   1320 117  15  530
1477480360.687:   1307 117  15  530
1477480360.687:   1313 117  15  530
1477480360.688:   1334 117  15  530
1477480360.691:   1344 117  15  530
1477480360.707:   1327 117  15  530
1477480360.707:   1292 117  15  530
1477480360.708:   1262 117  15  530
1477480360.708:   1249 117  15  530
1477480360.708:   1241 117  15  530
1477480360.709:   1224 117  15  530
1477480360.709:   1200 117  15  530
1477480360.710:   1186 117  15  530
1477480360.710:   1189 117  15  530
1477480360.710:   1196 117  15  530
1477480360.713:   1191 117  15  530
1477480360.714:   1176 117  15  530
1477480360.716:   1159 117  15  530
1477480360.717:   1149 117  15  530
1477480360.726:   1138 117  15  530
1477480360.727:   1120 117  15  530
1477480360.727:   1100 117  15  530
1477480360.728:   1089 117  15  530
1477480360.728:   1096 117  15  530
1477480360.730:   1112 117  15  530
1477480360.730:   1121 117  15  530
1477480360.732:   1116 117  15  530
1477480360.735:   1102 117  15  530
1477480360.737:   1089 117  15  530
1477480360.746:   1082 117  15  530
1477480360.747:   1079 117  15  530
1477480360.747:   1070 117  15  530
1477480360.748:   1047 117  15  530
1477480360.748:   1013 117  15  530
1477480360.749:    980 117  15  530
1477480360.773:    961 117  15  530
1477480360.773:    953 117  15  530
1477480360.775:    941 117  15  530
1477480360.776:    907 117  15  530
1477480360.776:    853 117  15  530
1477480360.777:    797 117  15  530
1477480360.778:    759 117  15  530
1477480360.789:    737 117  15  530
1477480360.797:    718 117  15  530
1477480360.797:    689 117  15  530
1477480360.798:    649 117  15  530
1477480360.798:    607 117  15  530
1477480360.798:    571 117  15  530
1477480360.800:    540 117  15  530
1477480360.800:    513 117  15  530
1477480360.801:    487 117  15  530
1477480360.801:    461 117  15  530
1477480360.802:    435 117  15  530
1477480360.802:    407 117  15  530
1477480360.803:    376 117  15  530
1477480360.803:    342 117  15  530
1477480360.804:    306 117  15  530
1477480360.804:    274 117  15  530
1477480360.805:    247 117  15  530
1477480360.805:    222 117  15  530
1477480360.806:    190 117  15  530
1477480360.822:    145 117  15  530
1477480360.822:    100 117  15  530
1477480360.822:     77 117  15  530
1477480360.822:     88 117  15  530
1477480360.822:    120 117  15  530
1477480360.823:    140 117  15  530
1477480360.823:    127 117  15  530
1477480360.823:     90 117  15  530
1477480360.823:     59 117  15  530
1477480360.824:     56 117  15  530
1477480360.825:     74 117  15  530
1477480360.825:     91 117  15  530
1477480360.825:     93 117  15  530
1477480360.828:     89 117  15  530
1477480360.910:     95 117  15  530
1477480360.911:    122 117  15  530
