timestamp: ADC HeartRate4sAverage HeartRate30sAverage HRV8sAverage
1477469352.075:  -1616  92  12  727
1477469352.087:  -1612  92  12  727
1477469352.156:  -1622  92  12  727
1477469352.156:  -1638  92  12  727
1477469352.157:  -1656  92  12  727
1477469352.157:  -1683  92  12  727
1477469352.157:  -1722  92  12  727
1477469352.158:  -1761  92  12  727
1477469352.158:  -1792  92  12  727
1477469352.162:  -1816  92  12  727
1477469352.163:  -1834  92  12  727
1477469352.163:  -1856  92  12  727
1477469352.163:  -1886  92  12  727
1477469352.164:  -1924  92  12  727
1477469352.165:  -1964  92  12  727
1477469352.165:  -2003  92  12  727
1477469352.165:  -2039  92  12  727
1477469352.166:  -2066  92  12  727
1477469352.166:  -2083  92  12  727
1477469352.181:  -2092  92  12  727
1477469352.181:  -2087  92  12  727
1477469352.181:  -2070  92  12  727
1477469352.181:  -2058  92  12  727
1477469352.181:  -2074  92  12  727
1477469352.182:  -2122  92  12  727
1477469352.182:  -2185  92  12  727
1477469352.182:  -2241  92  12  727
1477469352.182:  -2284  92  12  727
1477469352.182:  -2324  92  12  727
1477469352.182:  -2369  92  12  727
1477469352.183:  -2401  92  12  727
1477469352.183:  -2393  92  12  727
1477469352.183:  -2346  92  12  727
1477469352.184:  -2291  92  12  727
1477469352.184:  -2259  92  12  727
1477469352.184:  -2251  92  12  727
1477469352.184:  -2245  92  12  727
1477469352.185:  -2216  92  12  727
1477469352.185:  -2164  92  12  727
1477469352.185:  -2110  92  12  727
1477469352.185:  -2068  92  12  727
1477469352.186:  -2038  92  12  727
1477469352.186:  -2013  92  12  727
1477469352.186:  -1989  92  12  727
1477469352.186:  -1956  92  12  727
1477469352.186:  -1913  92  12  727
1477469352.186:  -1868  92  12  727
1477469352.187:  -1827  92  12  727
1477469352.187:  -1787  92  12  727
1477469352.187:  -1735  92  12  727
1477469352.187:  -1654  92  12  727
1477469352.188:  -1546  92  12  727
1477469352.188:  -1440  92  12  727
1477469352.188:  -1368  92  12  727
1477469352.189:  -1333  92  12  727
1477469352.189:  -1312  92  12  727
1477469352.189:  -1288  92  12  727
1477469352.189:  -1264  92  12  727
1477469352.189:  -1254  92  12  727
1477469352.189:  -1259  92  12  727
1477469352.189:  -1263  92  12  727
1477469352.189:  -1240  92  12  727
1477469352.189:  -1193  92  12  727
1477469352.190:  -1147  92  12  727
1477469352.190:  -1119  92  12  727
1477469352.193:  -1104  92  12  727
1477469352.193:  -1084  92  12  727
1477469352.193:  -1046  92  12  727
1477469352.194:   -991  92  12  727
1477469352.194:   -931  92  12  727
1477469352.194:   -876  92  12  727
1477469352.194:   -822  92  12  727
1477469352.194:   -765  92  12  727
1477469352.195:   -716  92  12  727
1477469352.202:   -692  92  12  727
1477469352.214:   -695  92  12  727
1477469352.215:   -715  92  12  727
1477469352.215:   -731  92  12  727
1477469352.215:   -735  92  12  727
1477469352.215:   -733  92  12  727
1477469352.215:   -734  92  12  727
1477469352.243:   -727  92  12  727
1477469352.244:   -698  92  12  727
1477469352.245:   -655  92  12  727
1477469352.246:   -623  92  12  727
1477469352.247:   -616  92  12  727
1477469352.247:   -626  92  12  727
1477469352.248:   -638  92  12  727
1477469352.249:   -641  92  12  727
1477469352.249:   -637  92  12  727
1477469352.249:   -638  92  12  727
1477469352.250:   -640  92  12  727
1477469352.252:   -635  92  12  727
1477469352.253:   -629  92  12  727
1477469352.253:   -637  92  12  727
1477469352.254:   -668  92  12  727
1477469352.254:   -721  92  12  727
1477469352.255:   -779  92  12  727
1477469352.255:   -821  92  12  727
1477469352.256:   -838  92  12  727
1477469352.256:   -849  92  12  727
1477469352.257:   -877  92  12  727
1477469352.257:   -921  92  12  727
1477469352.277:   -956  92  12  727
1477469352.278:   -963  92  12  727
1477469352.278:   -956  92  12  727
1477469352.278:   -972  92  12  727
1477469352.279:  -1021  92  12  727
1477469352.279:  -1061  92  12  727
1477469352.279:  -1042  92  12  727
1477469352.279:   -970  92  12  727
1477469352.279:   -900  92  12  727
1477469352.280:   -863  92  12  727
1477469352.280:   -843  92  12  727
1477469352.280:   -805  92  12  727
1477469352.280:   -755  92  12  727
1477469352.280:   -738  92  12  727
1477469352.281:   -778  92  12  727
1477469352.282:   -844  92  12  727
1477469352.286:   -878  92  12  727
1477469352.287:   -862  92  12  727
1477469352.289:   -822  92  12  727
1477469352.290:   -782  92  12  727
1477469352.292:   -745  92  12  727
1477469352.294:   -702  92  12  727
1477469352.295:   -657  92  12  727
1477469352.300:   -619  92  12  727
1477469352.312:   -592  92  12  727
1477469352.313:   -569  92  12  727
1477469352.313:   -546  92  12  727
1477469352.314:   -531  92  12  727
1477469352.315:   -530  92  12  727
1477469352.316:   -530  92  12  727
1477469352.316:   -513  92  12  727
1477469352.317:   -482  92  12  727
1477469352.318:   -457  92  12  727
1477469352.319:   -453  92  12  727
1477469352.323:   -476  92  12  727
1477469352.324:   -515  92  12  727
1477469352.325:   -549  92  12  727
1477469352.326:   -561  92  12  727
1477469352.327:   -551  92  12  727
1477469352.329:   -530  92  12  727
1477469352.332:   -516  92  12  727
1477469352.336:   -522  92  12  727
1477469352.351:   -543  92  12  727
1477469352.352:   -557  92  12  727
1477469352.352:   -553  92  12  727
1477469352.352:   -545  92  12  727
1477469352.352:   -551  92  12  727
1477469352.352:   -576  92  12  727
1477469352.352:   -608  92  12  727
1477469352.352:   -623  92  12  727
1477469352.353:   -614  92  12  727
1477469352.354:   -599  92  12  727
1477469352.355:   -599  92  12  727
1477469352.357:   -625  92  12  727
1477469352.363:   -670  92  12  727
1477469352.365:   -722  92  12  727
1477469352.375:   -773  92  12  727
1477469352.376:   -816  92  12  727
1477469352.376:   -848  92  12  727
1477469352.377:   -866  92  12  727
1477469352.379:   -874  92  12  727
1477469352.379:   -884  92  12  727
1477469352.380:   -911  92  12  727
1477469352.380:   -952  92  12  727
1477469352.380:   -994  92  12  727
1477469352.381:  -1031  92  12  727
1477469352.382:  -1072  92  12  727
1477469352.385:  -1123  92  12  727
1477469352.387:  -1178  92  12  727
1477469352.391:  -1220  92  12  727
1477469352.392:  -1229  92  12  727
1477469352.393:  -1216  92  12  727
1477469352.394:  -1216  92  12  727
1477469352.396:  -1249  92  12  727
1477469352.398:  -1305  92  12  727
1477469352.401:  -1359  92  12  727
1477469352.416:  -1395  92  12  727
1477469352.417:  -1419  92  12  727
1477469352.418:  -1451  92  12  727
1477469352.420:  -1495  92  12  727
1477469352.421:  -1538  92  12  727
1477469352.421:  -1566  92  12  727
1477469352.422:  -1587  92  12  727
1477469352.424:  -1619  92  12  727
1477469352.425:  -1667  92  12  727
1477469352.425:  -1724  92  12  727
1477469352.438:  -1778  92  12  727
1477469352.438:  -1826  92  12  727
1477469352.439:  -1866  92  12  727
1477469352.439:  -1899  92  12  727
1477469352.439:  -1916  92  12  727
1477469352.439:  -1915  92  12  727
1477469352.439:  -1912  92  12  727
1477469352.440:  -1924  92  12  727
1477469352.440:  -1955  92  12  727
1477469352.440:  -1995  92  12  727
1477469352.444:  -2035  92  12  727
1477469352.444:  -2069  92  12  727
1477469352.446:  -2097  92  12  727
1477469352.448:  -2121  92  12  727
1477469352.452:  -2136  92  12  727
1477469352.452:  -2138  92  12  727
1477469352.453:  -2132  92  12  727
1477469352.456:  -2135  92  12  727
1477469352.457:  -2157  92  12  727
1477469352.459:  -2198  92  12  727
1477469352.460:  -2243  92  12  727
1477469352.465:  -2275  92  12  727
1477469352.479:  -2287  92  12  727
1477469352.480:  -2297  92  12  727
1477469352.480:  -2322  92  12  727
1477469352.480:  -2353  92  12  727
1477469352.480:  -2374  92  12  727
1477469352.480:  -2377  92  12  727
1477469352.480:  -2378  92  12  727
1477469352.480:  -2401  92  12  727
1477469352.481:  -2445  92  12  727
1477469352.483:  -2481  92  12  727
1477469352.485:  -2481  92  12  727
1477469352.487:  -2452  92  12  727
1477469352.488:  -2424  92  12  727
1477469352.491:  -2407  92  12  727
1477469352.501:  -2392  92  12  727
1477469352.502:  -2366  92  12  727
1477469352.502:  -2336  92  12  727
1477469352.502:  -2325  92  12  727
1477469352.502:  -2346  92  12  727
1477469352.504:  -2383  92  12  727
1477469352.505:  -2406  92  12  727
1477469352.506:  -2404  92  12  727
1477469352.510:  -2386  92  12  727
1477469352.511:  -2362  92  12  727
1477469352.520:  -2339  92  12  727
1477469352.520:  -2324  92  12  727
1477469352.521:  -2322  92  12  727
1477469352.521:  -2334  92  12  727
1477469352.522:  -2357  92  12  727
1477469352.522:  -2379  92  12  727
1477469352.524:  -2389  92  12  727
1477469352.526:  -2386  92  12  727
1477469352.527:  -2375  92  12  727
1477469352.532:  -2350  92  12  727
1477469352.539:  -2307  92  12  727
1477469352.539:  -2252  92  12  727
1477469352.539:  -2200  92  12  727
1477469352.540:  -2164  92  12  727
1477469352.541:  -2149  92  12  727
1477469352.541:  -2147  92  12  727
1477469352.546:  -2140  92  12  727
1477469352.547:  -2120  92  12  727
1477469352.548:  -2096  92  12  727
1477469352.550:  -2072  92  12  727
1477469352.552:  -2047  92  12  727
1477469352.553:  -2019  92  12  727
1477469352.554:  -1988  92  12  727
1477469352.557:  -1955  92  12  727
1477469352.559:  -1925  92  12  727
1477469352.560:  -1898  92  12  727
1477469352.565:  -1867  92  12  727
1477469352.565:  -1825  92  12  727
1477469352.592:  -1772  92  12  727
1477469352.592:  -1711  92  12  727
1477469352.592:  -1647  92  12  727
1477469352.592:  -1594  92  12  727
1477469352.593:  -1563  92  12  727
1477469352.593:  -1550  92  12  727
1477469352.593:  -1547  92  12  727
1477469352.593:  -1546  92  12  727
1477469352.593:  -1545  92  12  727
1477469352.593:  -1543  92  12  727
1477469352.593:  -1538  92  12  727
1477469352.593:  -1525  92  12  727
1477469352.594:  -1501  92  12  727
1477469352.594:  -1473  92  12  727
1477469352.597:  -1457  92  12  727
1477469352.597:  -1457  92  12  727
1477469352.599:  -1466  92  12  727
1477469352.601:  -1476  92  12  727
1477469352.601:  -1480  92  12  727
1477469352.606:  -1478  92  12  727
1477469352.606:  -1475  92  12  727
1477469352.608:  -1477  92  12  727
1477469352.610:  -1475  92  12  727
1477469352.615:  -1469  92  12  727
1477469352.660:  -1465  92  12  727
1477469352.660:  -1480  92  12  727
1477469352.660:  -1523  92  12  727
1477469352.660:  -1590  92  12  727
1477469352.661:  -1664  92  12  727
1477469352.661:  -1726  92  12  727
1477469352.661:  -1768  92  12  727
1477469352.662:  -1790  92  12  727
1477469352.662:  -1793  92  12  727
1477469352.662:  -1781  92  12  727
1477469352.662:  -1770  92  12  727
1477469352.662:  -1771  92  12  727
1477469352.662:  -1782  92  12  727
1477469352.663:  -1799  92  12  727
1477469352.663:  -1820  92  12  727
1477469352.663:  -1848  92  12  727
1477469352.663:  -1886  92  12  727
1477469352.663:  -1930  92  12  727
1477469352.663:  -1974  92  12  727
1477469352.664:  -2014  92  12  727
1477469352.664:  -2053  92  12  727
1477469352.664:  -2090  92  12  727
1477469352.664:  -2116  92  12  727
1477469352.664:  -2134  92  12  727
1477469352.664:  -2158  92  12  727
1477469352.665:  -2191  92  12  727
1477469352.666:  -2219  92  12  727
1477469352.671:  -2221  92  12  727
1477469352.694:  -2187  92  12  727
1477469352.695:  -2130  92  12  727
1477469352.695:  -2080  92  12  727
1477469352.695:  -2060  92  12  727
1477469352.695:  -2063  92  12  727
1477469352.696:  -2065  92  12  727
1477469352.696:  -2052  92  12  727
1477469352.696:  -2024  92  12  727
1477469352.696:  -1991  92  12  727
1477469352.696:  -1958  92  12  727
1477469352.697:  -1916  92  12  727
1477469352.697:  -1850  92  12  727
1477469352.697:  -1772  92  12  727
1477469352.698:  -1712  92  12  727
1477469352.698:  -1687  92  12  727
1477469352.699:  -1685  92  12  727
1477469352.701:  -1684  92  12  727
1477469352.702:  -1674  92  12  727
1477469352.704:  -1667  92  12  727
1477469352.707:  -1677  92  12  727
1477469352.718:  -1696  92  12  727
1477469352.718:  -1702  92  12  727
1477469352.718:  -1691  92  12  727
1477469352.718:  -1683  92  12  727
1477469352.732:  -1694  92  12  727
1477469352.733:  -1718  92  12  727
1477469352.733:  -1740  92  12  727
1477469352.733:  -1756  92  12  727
1477469352.734:  -1772  92  12  727
1477469352.735:  -1788  92  12  727
1477469352.735:  -1799  92  12  727
1477469352.736:  -1790  92  12  727
1477469352.736:  -1766  92  12  727
1477469352.737:  -1743  92  12  727
1477469352.739:  -1735  92  12  727
1477469352.739:  -1744  92  12  727
1477469352.741:  -1764  92  12  727
1477469352.743:  -1787  92  12  727
1477469352.755:  -1800  92  12  727
1477469352.756:  -1796  92  12  727
1477469352.756:  -1785  92  12  727
1477469352.756:  -1781  92  12  727
1477469352.756:  -1796  92  12  727
1477469352.756:  -1819  92  12  727
1477469352.758:  -1829  92  12  727
1477469352.758:  -1810  92  12  727
1477469352.760:  -1786  92  12  727
1477469352.761:  -1793  92  12  727
1477469352.763:  -1860  92  12  727
1477469352.766:  -1987  92  12  727
1477469352.767:  -2168  92  12  727
1477469352.772:  -2415  92  12  727
1477469352.772:  -2760  92  12  727
1477469352.774:  -3222  92  12  727
1477469352.787:  -3776  92  12  727
1477469352.787:  -4341  92  12  727
1477469352.788:  -4833  92  12  727
1477469352.789:  -5199  92  12  727
1477469352.790:  -5427  92  12  727
1477469352.790:  -5517  92  12  727
1477469352.793:  -5447  92  12  727
1477469352.793:  -5166  92  12  727
1477469352.794:  -4629  92  12  727
1477469352.795:  -3851  92  12  727
1477469352.796:  -2922  92  12  727
1477469352.810:  -1958  92  12  727
1477469352.811:  -1045  92  12  727
1477469352.811:   -199  92  12  727
1477469352.814:    607  92  12  727
1477469352.815:   1388  92  12  727
1477469352.816:   2101  92  12  727
1477469352.819:   2662  92  12  727
1477469352.819:   3016  92  12  727
1477469352.819:   3162  92  12  727
1477469352.819:   3149  92  12  727
1477469352.820:   3027  92  12  727
1477469352.820:   2812  92  12  727
1477469352.820:   2489  92  12  727
1477469352.822:   2057  92  12  727
1477469352.826:   1563  92  12  727
1477469352.838:   1073  91  12  815
1477469352.839:    640  91  12  815
1477469352.839:    276  91  12  815
1477469352.839:    -38  91  12  815
1477469352.839:   -320  91  12  815
1477469352.839:   -559  91  12  815
1477469352.839:   -733  91  12  815
1477469352.840:   -855  91  12  815
1477469352.845:   -965  91  12  815
1477469352.845:  -1095  91  12  815
1477469352.847:  -1237  91  12  815
1477469352.849:  -1353  91  12  815
1477469352.850:  -1412  91  12  815
1477469352.853:  -1433  91  12  815
1477469352.853:  -1463  91  12  815
1477469352.858:  -1531  91  12  815
1477469352.868:  -1618  91  12  815
1477469352.868:  -1696  91  12  815
1477469352.869:  -1751  91  12  815
1477469352.869:  -1794  91  12  815
1477469352.869:  -1832  91  12  815
1477469352.869:  -1867  91  12  815
1477469352.870:  -1883  91  12  815
1477469352.872:  -1877  91  12  815
1477469352.874:  -1867  91  12  815
1477469352.875:  -1876  91  12  815
1477469352.877:  -1907  91  12  815
1477469352.879:  -1949  91  12  815
1477469352.892:  -1986  91  12  815
1477469352.892:  -2008  91  12  815
1477469352.892:  -2017  91  12  815
1477469352.892:  -2021  91  12  815
1477469352.892:  -2024  91  12  815
1477469352.894:  -2025  91  12  815
1477469352.894:  -2030  91  12  815
1477469352.896:  -2050  91  12  815
1477469352.897:  -2091  91  12  815
1477469352.900:  -2146  91  12  815
1477469352.901:  -2198  91  12  815
1477469352.904:  -2234  91  12  815
1477469352.905:  -2251  91  12  815
1477469352.907:  -2262  91  12  815
1477469352.909:  -2272  91  12  815
1477469352.913:  -2271  91  12  815
1477469352.913:  -2258  91  12  815
1477469352.915:  -2241  91  12  815
1477469352.919:  -2236  91  12  815
1477469352.923:  -2252  91  12  815
1477469352.932:  -2287  91  12  815
1477469352.933:  -2322  91  12  815
1477469352.935:  -2336  91  12  815
1477469352.936:  -2327  91  12  815
1477469352.937:  -2309  91  12  815
1477469352.938:  -2294  91  12  815
1477469352.938:  -2286  91  12  815
1477469352.939:  -2278  91  12  815
1477469352.940:  -2262  91  12  815
1477469352.940:  -2239  91  12  815
1477469352.941:  -2230  91  12  815
1477469352.945:  -2243  91  12  815
1477469352.954:  -2268  91  12  815
1477469352.955:  -2286  91  12  815
1477469352.955:  -2294  91  12  815
1477469352.956:  -2293  91  12  815
1477469352.957:  -2300  91  12  815
1477469352.957:  -2326  91  12  815
1477469352.958:  -2377  91  12  815
1477469352.959:  -2440  91  12  815
1477469352.963:  -2504  91  12  815
1477469352.963:  -2555  91  12  815
1477469352.964:  -2587  91  12  815
1477469352.966:  -2602  91  12  815
1477469352.967:  -2608  91  12  815
1477469352.970:  -2601  91  12  815
1477469352.972:  -2580  91  12  815
1477469352.976:  -2548  91  12  815
1477469352.977:  -2519  91  12  815
1477469352.978:  -2497  91  12  815
1477469352.992:  -2485  91  12  815
1477469352.993:  -2478  91  12  815
1477469352.993:  -2474  91  12  815
1477469352.994:  -2465  91  12  815
1477469352.994:  -2446  91  12  815
1477469352.994:  -2408  91  12  815
1477469352.995:  -2353  91  12  815
1477469352.995:  -2301  91  12  815
1477469352.997:  -2270  91  12  815
1477469352.997:  -2257  91  12  815
1477469352.999:  -2250  91  12  815
1477469353.004:  -2240  91  12  815
1477469353.014:  -2226  91  12  815
1477469353.014:  -2212  91  12  815
1477469353.015:  -2197  91  12  815
1477469353.015:  -2177  91  12  815
1477469353.016:  -2146  91  12  815
1477469353.018:  -2116  91  12  815
1477469353.019:  -2097  91  12  815
1477469353.019:  -2091  91  12  815
1477469353.019:  -2090  91  12  815
1477469353.021:  -2091  91  12  815
1477469353.022:  -2094  91  12  815
1477469353.025:  -2097  91  12  815
1477469353.027:  -2097  91  12  815
1477469353.031:  -2089  91  12  815
1477469353.032:  -2069  91  12  815
1477469353.035:  -2050  91  12  815
1477469353.036:  -2049  91  12  815
1477469353.036:  -2070  91  12  815
1477469353.038:  -2103  91  12  815
1477469353.041:  -2144  91  12  815
1477469353.045:  -2190  91  12  815
1477469353.046:  -2237  91  12  815
1477469353.060:  -2278  91  12  815
1477469353.061:  -2304  91  12  815
1477469353.063:  -2312  91  12  815
1477469353.063:  -2314  91  12  815
1477469353.064:  -2324  91  12  815
1477469353.064:  -2349  91  12  815
1477469353.065:  -2382  91  12  815
1477469353.066:  -2423  91  12  815
1477469353.068:  -2466  91  12  815
1477469353.069:  -2503  91  12  815
1477469353.069:  -2525  91  12  815
1477469353.070:  -2533  91  12  815
1477469353.073:  -2528  91  12  815
1477469353.073:  -2518  91  12  815
1477469353.074:  -2514  91  12  815
1477469353.076:  -2523  91  12  815
1477469353.077:  -2547  91  12  815
1477469353.081:  -2582  91  12  815
1477469353.105:  -2621  91  12  815
1477469353.106:  -2652  91  12  815
1477469353.106:  -2675  91  12  815
1477469353.107:  -2700  91  12  815
1477469353.115:  -2726  91  12  815
1477469353.116:  -2745  91  12  815
1477469353.117:  -2752  91  12  815
1477469353.117:  -2760  91  12  815
1477469353.131:  -2773  91  12  815
1477469353.131:  -2796  91  12  815
1477469353.132:  -2824  91  12  815
1477469353.133:  -2851  91  12  815
1477469353.134:  -2878  91  12  815
1477469353.135:  -2903  91  12  815
1477469353.136:  -2913  91  12  815
1477469353.136:  -2908  91  12  815
1477469353.137:  -2907  91  12  815
1477469353.137:  -2937  91  12  815
1477469353.205:  -3000  91  12  815
1477469353.205:  -3076  91  12  815
1477469353.205:  -3139  91  12  815
1477469353.206:  -3187  91  12  815
1477469353.206:  -3227  91  12  815
1477469353.206:  -3266  91  12  815
1477469353.206:  -3293  91  12  815
1477469353.206:  -3297  91  12  815
1477469353.207:  -3286  91  12  815
1477469353.207:  -3277  91  12  815
1477469353.207:  -3273  91  12  815
1477469353.207:  -3267  91  12  815
1477469353.208:  -3262  91  12  815
1477469353.208:  -3269  91  12  815
1477469353.208:  -3290  91  12  815
1477469353.208:  -3308  91  12  815
1477469353.208:  -3295  91  12  815
1477469353.208:  -3243  91  12  815
1477469353.209:  -3176  91  12  815
1477469353.209:  -3124  91  12  815
1477469353.209:  -3086  91  12  815
1477469353.209:  -3030  91  12  815
1477469353.209:  -2933  91  12  815
1477469353.209:  -2807  91  12  815
1477469353.209:  -2683  91  12  815
1477469353.210:  -2578  91  12  815
1477469353.210:  -2480  91  12  815
1477469353.210:  -2366  91  12  815
1477469353.210:  -2240  91  12  815
1477469353.210:  -2132  91  12  815
1477469353.211:  -2070  91  12  815
1477469353.211:  -2044  91  12  815
1477469353.211:  -2036  91  12  815
1477469353.211:  -2030  91  12  815
1477469353.211:  -2022  91  12  815
1477469353.211:  -2010  91  12  815
1477469353.212:  -1986  91  12  815
1477469353.212:  -1941  91  12  815
1477469353.212:  -1879  91  12  815
1477469353.212:  -1822  91  12  815
1477469353.212:  -1784  91  12  815
1477469353.212:  -1758  91  12  815
1477469353.214:  -1728  91  12  815
1477469353.215:  -1690  91  12  815
1477469353.231:  -1654  91  12  815
1477469353.231:  -1634  91  12  815
1477469353.231:  -1631  91  12  815
1477469353.231:  -1629  91  12  815
1477469353.231:  -1611  91  12  815
1477469353.231:  -1580  91  12  815
1477469353.247:  -1565  91  12  815
1477469353.247:  -1585  91  12  815
1477469353.253:  -1642  91  12  815
1477469353.253:  -1709  91  12  815
1477469353.253:  -1758  91  12  815
1477469353.253:  -1786  91  12  815
1477469353.254:  -1816  91  12  815
1477469353.254:  -1860  91  12  815
1477469353.254:  -1903  91  12  815
1477469353.254:  -1929  91  12  815
1477469353.255:  -1948  91  12  815
1477469353.255:  -1981  91  12  815
1477469353.255:  -2034  91  12  815
1477469353.256:  -2088  91  12  815
1477469353.256:  -2124  91  12  815
1477469353.256:  -2147  91  12  815
1477469353.256:  -2174  91  12  815
1477469353.256:  -2206  91  12  815
1477469353.256:  -2221  91  12  815
1477469353.257:  -2218  91  12  815
1477469353.258:  -2234  91  12  815
1477469353.259:  -2298  91  12  815
1477469353.261:  -2393  91  12  815
1477469353.262:  -2475  91  12  815
1477469353.265:  -2518  91  12  815
1477469353.265:  -2546  91  12  815
1477469353.269:  -2583  91  12  815
1477469353.269:  -2619  91  12  815
1477469353.270:  -2619  91  12  815
1477469353.272:  -2580  91  12  815
1477469353.273:  -2541  91  12  815
1477469353.279:  -2536  91  12  815
1477469353.289:  -2547  91  12  815
1477469353.289:  -2536  91  12  815
1477469353.290:  -2499  91  12  815
1477469353.290:  -2466  91  12  815
1477469353.291:  -2463  91  12  815
1477469353.291:  -2472  91  12  815
1477469353.293:  -2453  91  12  815
1477469353.293:  -2401  91  12  815
1477469353.296:  -2351  91  12  815
1477469353.297:  -2344  91  12  815
1477469353.309:  -2373  91  12  815
1477469353.309:  -2406  91  12  815
1477469353.309:  -2417  91  12  815
1477469353.310:  -2410  91  12  815
1477469353.310:  -2399  91  12  815
1477469353.310:  -2392  91  12  815
1477469353.310:  -2373  91  12  815
1477469353.312:  -2332  91  12  815
1477469353.313:  -2284  91  12  815
1477469353.314:  -2259  91  12  815
1477469353.317:  -2272  91  12  815
1477469353.319:  -2313  91  12  815
1477469353.323:  -2363  91  12  815
1477469353.324:  -2407  91  12  815
1477469353.325:  -2448  91  12  815
1477469353.327:  -2492  91  12  815
1477469353.345:  -2531  91  12  815
1477469353.345:  -2547  91  12  815
1477469353.346:  -2530  91  12  815
1477469353.346:  -2492  91  12  815
1477469353.346:  -2447  91  12  815
1477469353.346:  -2403  91  12  815
1477469353.346:  -2362  91  12  815
1477469353.346:  -2318  91  12  815
1477469353.346:  -2270  91  12  815
1477469353.347:  -2223  91  12  815
1477469353.351:  -2182  91  12  815
1477469353.351:  -2143  91  12  815
1477469353.353:  -2110  91  12  815
1477469353.354:  -2091  91  12  815
1477469353.355:  -2090  91  12  815
1477469353.358:  -2101  91  12  815
1477469353.361:  -2116  91  12  815
1477469353.365:  -2131  91  12  815
1477469353.382:  -2147  91  12  815
1477469353.382:  -2172  91  12  815
1477469353.382:  -2203  91  12  815
1477469353.382:  -2222  91  12  815
1477469353.382:  -2227  91  12  815
1477469353.382:  -2231  91  12  815
1477469353.404:  -2257  91  12  815
1477469353.405:  -2308  91  12  815
1477469353.406:  -2370  91  12  815
1477469353.407:  -2420  91  12  815
1477469353.408:  -2446  91  12  815
1477469353.411:  -2454  91  12  815
1477469353.413:  -2459  91  12  815
1477469353.414:  -2458  91  12  815
1477469353.414:  -2451  91  12  815
1477469353.414:  -2443  91  12  815
1477469353.414:  -2452  91  12  815
1477469353.414:  -2485  91  12  815
1477469353.414:  -2534  91  12  815
1477469353.414:  -2586  91  12  815
1477469353.415:  -2628  91  12  815
1477469353.415:  -2664  91  12  815
1477469353.415:  -2700  91  12  815
1477469353.415:  -2730  91  12  815
1477469353.415:  -2742  91  12  815
1477469353.417:  -2738  91  12  815
1477469353.419:  -2731  91  12  815
1477469353.420:  -2728  91  12  815
1477469353.420:  -2729  91  12  815
1477469353.422:  -2726  91  12  815
1477469353.425:  -2715  91  12  815
1477469353.425:  -2699  91  12  815
1477469353.427:  -2681  91  12  815
1477469353.429:  -2654  91  12  815
1477469353.434:  -2615  91  12  815
1477469353.434:  -2580  91  12  815
1477469353.436:  -2575  91  12  815
1477469353.437:  -2601  91  12  815
1477469353.438:  -2641  91  12  815
1477469353.442:  -2669  91  12  815
1477469353.460:  -2682  91  12  815
1477469353.461:  -2690  91  12  815
1477469353.462:  -2702  91  12  815
1477469353.462:  -2705  91  12  815
1477469353.463:  -2683  91  12  815
1477469353.463:  -2648  91  12  815
1477469353.464:  -2626  91  12  815
1477469353.464:  -2629  91  12  815
1477469353.464:  -2641  91  12  815
1477469353.465:  -2647  91  12  815
1477469353.465:  -2646  91  12  815
1477469353.466:  -2652  91  12  815
1477469353.467:  -2668  91  12  815
1477469353.469:  -2678  91  12  815
1477469353.481:  -2663  91  12  815
1477469353.482:  -2634  91  12  815
1477469353.482:  -2627  91  12  815
1477469353.485:  -2657  91  12  815
1477469353.486:  -2705  91  12  815
1477469353.486:  -2746  91  12  815
1477469353.487:  -2771  91  12  815
1477469353.487:  -2792  91  12  815
1477469353.488:  -2817  91  12  815
1477469353.489:  -2837  91  12  815
1477469353.490:  -2833  91  12  815
1477469353.494:  -2807  91  12  815
1477469353.495:  -2780  91  12  815
1477469353.496:  -2768  91  12  815
1477469353.498:  -2765  91  12  815
1477469353.503:  -2768  91  12  815
1477469353.504:  -2782  91  12  815
1477469353.506:  -2811  91  12  815
1477469353.506:  -2844  91  12  815
1477469353.507:  -2856  91  12  815
1477469353.511:  -2835  91  12  815
1477469353.513:  -2800  91  12  815
1477469353.514:  -2787  91  12  815
1477469353.516:  -2809  91  12  815
1477469353.531:  -2839  91  12  815
1477469353.531:  -2847  91  12  815
1477469353.531:  -2834  91  12  815
1477469353.532:  -2819  91  12  815
1477469353.532:  -2809  91  12  815
1477469353.532:  -2796  91  12  815
1477469353.532:  -2762  91  12  815
1477469353.532:  -2712  91  12  815
1477469353.536:  -2669  91  12  815
1477469353.536:  -2649  91  12  815
1477469353.537:  -2645  91  12  815
1477469353.539:  -2645  91  12  815
1477469353.541:  -2646  91  12  815
1477469353.543:  -2650  91  12  815
1477469353.552:  -2653  91  12  815
1477469353.552:  -2646  91  12  815
1477469353.552:  -2623  91  12  815
1477469353.553:  -2589  91  12  815
1477469353.553:  -2560  91  12  815
1477469353.555:  -2551  91  12  815
1477469353.555:  -2561  91  12  815
1477469353.558:  -2585  91  12  815
1477469353.563:  -2617  91  12  815
1477469353.563:  -2646  91  12  815
1477469353.573:  -2669  91  12  815
1477469353.573:  -2685  91  12  815
1477469353.573:  -2693  91  12  815
1477469353.573:  -2688  91  12  815
1477469353.575:  -2674  91  12  815
1477469353.575:  -2664  91  12  815
1477469353.578:  -2669  91  12  815
1477469353.578:  -2693  91  12  815
1477469353.581:  -2725  91  12  815
1477469353.582:  -2751  91  12  815
1477469353.584:  -2759  91  12  815
1477469353.598:  -2755  91  12  815
1477469353.599:  -2747  91  12  815
1477469353.599:  -2736  91  12  815
1477469353.599:  -2722  91  12  815
1477469353.599:  -2713  91  12  815
1477469353.599:  -2715  91  12  815
1477469353.600:  -2733  91  12  815
1477469353.600:  -2763  91  12  815
1477469353.602:  -2794  91  12  815
1477469353.603:  -2817  91  12  815
1477469353.607:  -2833  91  12  815
1477469353.607:  -2852  91  12  815
1477469353.609:  -2877  91  12  815
1477469353.620:  -2898  91  12  815
1477469353.621:  -2906  91  12  815
1477469353.621:  -2901  91  12  815
1477469353.621:  -2901  91  12  815
1477469353.621:  -2925  91  12  815
1477469353.621:  -2969  91  12  815
1477469353.623:  -3008  91  12  815
1477469353.624:  -3020  91  12  815
1477469353.630:  -3015  91  12  815
1477469353.630:  -3021  91  12  815
1477469353.632:  -3054  91  12  815
1477469353.634:  -3105  91  12  815
1477469353.643:  -3154  91  12  815
1477469353.643:  -3185  91  12  815
1477469353.643:  -3216  91  12  815
1477469353.643:  -3265  91  12  815
1477469353.643:  -3328  91  12  815
1477469353.644:  -3382  91  12  815
1477469353.649:  -3413  91  12  815
1477469353.649:  -3426  91  12  815
1477469353.653:  -3435  91  12  815
1477469353.653:  -3456  91  12  815
1477469353.661:  -3494  91  12  815
1477469353.662:  -3542  91  12  815
1477469353.662:  -3594  91  12  815
1477469353.663:  -3644  91  12  815
1477469353.663:  -3682  91  12  815
1477469353.667:  -3709  91  12  815
1477469353.668:  -3742  91  12  815
1477469353.671:  -3796  91  12  815
1477469353.671:  -3858  91  12  815
1477469353.673:  -3908  91  12  815
1477469353.674:  -3936  91  12  815
1477469353.675:  -3961  91  12  815
1477469353.681:  -4012  91  12  815
1477469353.682:  -4100  91  12  815
1477469353.697:  -4196  91  12  815
1477469353.698:  -4260  91  12  815
1477469353.699:  -4282  91  12  815
1477469353.699:  -4275  91  12  815
1477469353.700:  -4252  91  12  815
1477469353.701:  -4219  91  12  815
1477469353.701:  -4189  91  12  815
1477469353.702:  -4171  91  12  815
1477469353.702:  -4166  91  12  815
1477469353.703:  -4162  91  12  815
1477469353.704:  -4148  91  12  815
1477469353.704:  -4134  91  12  815
1477469353.706:  -4141  91  12  815
1477469353.708:  -4165  82  10  821
1477469353.715:  -4166  82  10  821
1477469353.716:  -4109  82  10  821
1477469353.716:  -4010  82  10  821
1477469353.716:  -3916  82  10  821
1477469353.717:  -3846  82  10  821
1477469353.719:  -3773  82  10  821
1477469353.722:  -3655  82  10  821
1477469353.726:  -3490  82  10  821
1477469353.736:  -3326  82  10  821
1477469353.736:  -3207  82  10  821
1477469353.736:  -3130  82  10  821
1477469353.736:  -3065  82  10  821
1477469353.736:  -2999  82  10  821
1477469353.736:  -2956  82  10  821
1477469353.740:  -2961  82  10  821
1477469353.741:  -3011  82  10  821
1477469353.742:  -3071  82  10  821
1477469353.744:  -3107  82  10  821
1477469353.745:  -3105  82  10  821
1477469353.747:  -3077  82  10  821
1477469353.749:  -3037  82  10  821
1477469353.754:  -2999  82  10  821
1477469353.754:  -2973  82  10  821
1477469353.759:  -2966  82  10  821
1477469353.759:  -2971  82  10  821
1477469353.760:  -2987  82  10  821
1477469353.760:  -3014  82  10  821
1477469353.763:  -3055  82  10  821
1477469353.767:  -3106  82  10  821
1477469353.767:  -3152  82  10  821
1477469353.769:  -3179  82  10  821
1477469353.771:  -3175  82  10  821
1477469353.772:  -3148  82  10  821
1477469353.774:  -3118  82  10  821
1477469353.787:  -3101  82  10  821
1477469353.787:  -3105  82  10  821
1477469353.787:  -3122  82  10  821
1477469353.787:  -3132  82  10  821
1477469353.787:  -3118  82  10  821
1477469353.789:  -3088  82  10  821
1477469353.789:  -3068  82  10  821
1477469353.791:  -3071  82  10  821
1477469353.795:  -3095  82  10  821
1477469353.796:  -3129  82  10  821
1477469353.798:  -3163  82  10  821
1477469353.800:  -3197  82  10  821
1477469353.822:  -3242  82  10  821
1477469353.822:  -3298  82  10  821
1477469353.822:  -3350  82  10  821
1477469353.823:  -3389  82  10  821
1477469353.823:  -3415  82  10  821
1477469353.823:  -3430  82  10  821
1477469353.824:  -3446  82  10  821
1477469353.824:  -3477  82  10  821
1477469353.824:  -3526  82  10  821
1477469353.824:  -3593  82  10  821
1477469353.824:  -3677  82  10  821
1477469353.824:  -3775  82  10  821
1477469353.825:  -3882  82  10  821
1477469353.826:  -3993  82  10  821
1477469353.827:  -4109  82  10  821
1477469353.829:  -4224  82  10  821
1477469353.832:  -4332  82  10  821
1477469353.833:  -4419  82  10  821
1477469353.841:  -4472  82  10  821
1477469353.841:  -4495  82  10  821
1477469353.842:  -4518  82  10  821
1477469353.842:  -4573  82  10  821
1477469353.843:  -4656  82  10  821
1477469353.845:  -4747  82  10  821
1477469353.850:  -4854  82  10  821
1477469353.850:  -5028  82  10  821
1477469353.852:  -5322  82  10  821
1477469353.853:  -5750  82  10  821
1477469353.854:  -6268  82  10  821
1477469353.857:  -6807  82  10  821
1477469353.859:  -7319  82  10  821
1477469353.860:  -7759  82  10  821
1477469353.877:  -8067  82  10  821
1477469353.878:  -8186  82  10  821
1477469353.879:  -8106  82  10  821
1477469353.879:  -7849  82  10  821
1477469353.879:  -7424  82  10  821
1477469353.879:  -6806  82  10  821
1477469353.879:  -5977  82  10  821
1477469353.880:  -5002  82  10  821
1477469353.881:  -4023  82  10  821
1477469353.882:  -3170  82  10  821
1477469353.883:  -2467  82  10  821
1477469353.884:  -1848  82  10  821
1477469353.885:  -1260  82  10  821
1477469353.888:   -731  82  10  821
1477469353.890:   -337  82  10  821
1477469353.892:   -124  82  10  821
1477469353.896:    -73  82  10  821
1477469353.896:   -133  82  10  821
1477469353.908:   -277  82  10  821
1477469353.908:   -513  82  10  821
1477469353.908:   -839  82  10  821
1477469353.909:  -1221  82  10  821
1477469353.909:  -1626  82  10  821
1477469353.910:  -2044  82  10  821
1477469353.910:  -2477  82  10  821
1477469353.919:  -2918  82  10  821
1477469353.919:  -3339  82  10  821
1477469353.919:  -3698  82  10  821
1477469353.919:  -3978  82  10  821
1477469353.919:  -4191  82  10  821
1477469353.926:  -4356  82  10  821
1477469353.926:  -4485  82  10  821
1477469353.939:  -4586  82  10  821
1477469353.939:  -4672  82  10  821
1477469353.939:  -4739  82  10  821
1477469353.939:  -4778  82  10  821
1477469353.939:  -4794  82  10  821
1477469353.939:  -4808  82  10  821
1477469353.939:  -4855  82  10  821
1477469353.941:  -4957  82  10  821
1477469353.941:  -5096  82  10  821
1477469353.943:  -5222  82  10  821
1477469353.944:  -5301  82  10  821
1477469353.953:  -5333  82  10  821
1477469353.953:  -5343  82  10  821
1477469353.953:  -5358  82  10  821
1477469353.954:  -5391  82  10  821
1477469353.955:  -5443  82  10  821
1477469353.957:  -5508  82  10  821
1477469353.959:  -5579  82  10  821
1477469353.961:  -5648  82  10  821
1477469353.963:  -5706  82  10  821
1477469353.977:  -5753  82  10  821
1477469353.977:  -5795  82  10  821
1477469353.977:  -5833  82  10  821
1477469353.978:  -5865  82  10  821
1477469353.978:  -5894  82  10  821
1477469353.978:  -5936  82  10  821
1477469353.978:  -5994  82  10  821
1477469353.979:  -6063  82  10  821
1477469353.981:  -6121  82  10  821
1477469353.983:  -6156  82  10  821
1477469353.984:  -6182  82  10  821
1477469353.985:  -6229  82  10  821
1477469353.992:  -6302  82  10  821
1477469353.992:  -6372  82  10  821
1477469354.005:  -6407  82  10  821
1477469354.005:  -6417  82  10  821
1477469354.005:  -6434  82  10  821
1477469354.005:  -6482  82  10  821
1477469354.006:  -6558  82  10  821
1477469354.006:  -6636  82  10  821
1477469354.006:  -6694  82  10  821
1477469354.007:  -6733  82  10  821
1477469354.071:  -6754  82  10  821
1477469354.071:  -6758  82  10  821
1477469354.071:  -6756  82  10  821
1477469354.071:  -6774  82  10  821
1477469354.089:  -6826  82  10  821
1477469354.089:  -6895  82  10  821
1477469354.090:  -6948  82  10  821
1477469354.090:  -6960  82  10  821
1477469354.090:  -6944  82  10  821
1477469354.090:  -6938  82  10  821
1477469354.090:  -6966  82  10  821
1477469354.090:  -7014  82  10  821
1477469354.090:  -7057  82  10  821
1477469354.091:  -7081  82  10  821
1477469354.091:  -7095  82  10  821
1477469354.091:  -7120  82  10  821
1477469354.091:  -7181  82  10  821
1477469354.092:  -7281  82  10  821
1477469354.092:  -7396  82  10  821
1477469354.092:  -7484  82  10  821
1477469354.092:  -7519  82  10  821
1477469354.092:  -7510  82  10  821
1477469354.093:  -7505  82  10  821
1477469354.093:  -7547  82  10  821
1477469354.093:  -7636  82  10  821
1477469354.093:  -7719  82  10  821
1477469354.093:  -7757  82  10  821
1477469354.093:  -7755  82  10  821
1477469354.094:  -7752  82  10  821
1477469354.094:  -7776  82  10  821
1477469354.094:  -7805  82  10  821
1477469354.094:  -7796  82  10  821
1477469354.095:  -7734  82  10  821
1477469354.095:  -7659  82  10  821
1477469354.095:  -7624  82  10  821
1477469354.095:  -7636  82  10  821
1477469354.095:  -7662  82  10  821
1477469354.095:  -7666  82  10  821
1477469354.095:  -7651  82  10  821
1477469354.096:  -7643  82  10  821
1477469354.096:  -7666  82  10  821
1477469354.096:  -7706  82  10  821
1477469354.096:  -7734  82  10  821
1477469354.098:  -7732  82  10  821
1477469354.098:  -7716  82  10  821
1477469354.098:  -7711  82  10  821
1477469354.101:  -7733  82  10  821
1477469354.101:  -7777  82  10  821
1477469354.114:  -7814  82  10  821
1477469354.115:  -7819  82  10  821
1477469354.115:  -7792  82  10  821
1477469354.115:  -7755  82  10  821
1477469354.115:  -7733  82  10  821
1477469354.116:  -7736  82  10  821
1477469354.116:  -7756  82  10  821
1477469354.117:  -7775  82  10  821
1477469354.118:  -7782  82  10  821
1477469354.119:  -7777  82  10  821
1477469354.122:  -7765  82  10  821
1477469354.124:  -7744  82  10  821
1477469354.139:  -7709  82  10  821
1477469354.139:  -7661  82  10  821
1477469354.139:  -7602  82  10  821
1477469354.140:  -7539  82  10  821
1477469354.140:  -7479  82  10  821
1477469354.140:  -7419  82  10  821
1477469354.140:  -7352  82  10  821
1477469354.143:  -7289  82  10  821
1477469354.143:  -7246  82  10  821
1477469354.144:  -7228  82  10  821
1477469354.146:  -7212  82  10  821
1477469354.147:  -7170  82  10  821
1477469354.150:  -7090  82  10  821
1477469354.152:  -7001  82  10  821
1477469354.162:  -6945  82  10  821
1477469354.163:  -6930  82  10  821
1477469354.163:  -6925  82  10  821
1477469354.163:  -6913  82  10  821
1477469354.164:  -6907  82  10  821
1477469354.164:  -6925  82  10  821
1477469354.166:  -6954  82  10  821
1477469354.170:  -6953  82  10  821
1477469354.171:  -6905  82  10  821
1477469354.172:  -6842  82  10  821
1477469354.174:  -6818  82  10  821
1477469354.175:  -6840  82  10  821
1477469354.178:  -6857  82  10  821
1477469354.180:  -6834  82  10  821
1477469354.185:  -6784  82  10  821
1477469354.186:  -6756  82  10  821
1477469354.202:  -6777  82  10  821
1477469354.202:  -6824  82  10  821
1477469354.203:  -6847  82  10  821
1477469354.203:  -6823  82  10  821
1477469354.203:  -6776  82  10  821
1477469354.205:  -6749  82  10  821
1477469354.205:  -6758  82  10  821
1477469354.205:  -6794  82  10  821
1477469354.206:  -6828  82  10  821
1477469354.206:  -6841  82  10  821
1477469354.206:  -6832  82  10  821
1477469354.207:  -6814  82  10  821
1477469354.213:  -6786  82  10  821
1477469354.213:  -6731  82  10  821
1477469354.225:  -6642  82  10  821
1477469354.225:  -6555  82  10  821
1477469354.225:  -6517  82  10  821
1477469354.226:  -6537  82  10  821
1477469354.255:  -6572  82  10  821
1477469354.256:  -6560  82  10  821
1477469354.266:  -6499  82  10  821
1477469354.266:  -6446  82  10  821
1477469354.266:  -6449  82  10  821
1477469354.268:  -6482  82  10  821
1477469354.268:  -6483  82  10  821
1477469354.268:  -6424  82  10  821
1477469354.268:  -6332  82  10  821
1477469354.269:  -6260  82  10  821
1477469354.269:  -6233  82  10  821
1477469354.269:  -6229  82  10  821
1477469354.269:  -6211  82  10  821
1477469354.270:  -6160  82  10  821
1477469354.270:  -6085  82  10  821
1477469354.270:  -6002  82  10  821
1477469354.270:  -5925  82  10  821
1477469354.270:  -5860  82  10  821
1477469354.270:  -5806  82  10  821
1477469354.270:  -5760  82  10  821
1477469354.271:  -5722  82  10  821
1477469354.271:  -5698  82  10  821
1477469354.271:  -5680  82  10  821
1477469354.271:  -5661  82  10  821
1477469354.271:  -5644  82  10  821
1477469354.271:  -5630  82  10  821
1477469354.274:  -5620  82  10  821
1477469354.274:  -5610  82  10  821
1477469354.275:  -5597  82  10  821
1477469354.277:  -5573  82  10  821
1477469354.279:  -5533  82  10  821
1477469354.280:  -5471  82  10  821
1477469354.285:  -5392  82  10  821
1477469354.285:  -5320  82  10  821
1477469354.294:  -5278  82  10  821
1477469354.294:  -5251  82  10  821
1477469354.294:  -5206  82  10  821
1477469354.294:  -5137  82  10  821
1477469354.294:  -5086  82  10  821
1477469354.298:  -5091  82  10  821
1477469354.299:  -5135  82  10  821
1477469354.303:  -5159  82  10  821
1477469354.304:  -5129  82  10  821
1477469354.305:  -5078  82  10  821
1477469354.308:  -5066  82  10  821
1477469354.310:  -5093  82  10  821
1477469354.313:  -5104  82  10  821
1477469354.314:  -5063  82  10  821
1477469354.315:  -5005  82  10  821
1477469354.319:  -4982  82  10  821
1477469354.319:  -5003  82  10  821
1477469354.321:  -5028  82  10  821
1477469354.322:  -5022  82  10  821
1477469354.327:  -4992  82  10  821
1477469354.339:  -4961  82  10  821
1477469354.341:  -4923  82  10  821
1477469354.341:  -4859  82  10  821
1477469354.342:  -4782  82  10  821
1477469354.345:  -4738  82  10  821
1477469354.347:  -4741  82  10  821
1477469354.360:  -4750  82  10  821
1477469354.361:  -4715  82  10  821
1477469354.361:  -4635  82  10  821
1477469354.361:  -4560  82  10  821
1477469354.361:  -4532  82  10  821
1477469354.362:  -4527  82  10  821
1477469354.362:  -4491  82  10  821
1477469354.362:  -4409  82  10  821
1477469354.362:  -4330  82  10  821
1477469354.363:  -4306  82  10  821
1477469354.363:  -4332  82  10  821
1477469354.363:  -4363  82  10  821
1477469354.364:  -4370  82  10  821
1477469354.369:  -4363  82  10  821
1477469354.380:  -4361  82  10  821
1477469354.380:  -4361  82  10  821
1477469354.380:  -4334  82  10  821
1477469354.381:  -4269  82  10  821
1477469354.381:  -4197  82  10  821
1477469354.381:  -4156  82  10  821
1477469354.382:  -4157  82  10  821
1477469354.382:  -4189  82  10  821
1477469354.383:  -4236  82  10  821
1477469354.384:  -4296  82  10  821
1477469354.386:  -4376  82  10  821
1477469354.387:  -4474  82  10  821
1477469354.389:  -4565  82  10  821
1477469354.394:  -4630  82  10  821
1477469354.394:  -4673  82  10  821
1477469354.395:  -4725  82  10  821
1477469354.397:  -4801  82  10  821
1477469354.399:  -4895  82  10  821
1477469354.400:  -4976  82  10  821
1477469354.401:  -5025  82  10  821
1477469354.415:  -5053  82  10  821
1477469354.415:  -5083  82  10  821
1477469354.415:  -5120  82  10  821
1477469354.416:  -5150  82  10  821
1477469354.416:  -5162  82  10  821
1477469354.416:  -5170  82  10  821
1477469354.417:  -5192  82  10  821
1477469354.419:  -5226  82  10  821
1477469354.421:  -5259  82  10  821
1477469354.422:  -5281  82  10  821
1477469354.426:  -5299  82  10  821
1477469354.426:  -5320  82  10  821
1477469354.428:  -5333  82  10  821
1477469354.431:  -5314  82  10  821
1477469354.436:  -5271  82  10  821
1477469354.436:  -5242  82  10  821
1477469354.453:  -5257  82  10  821
1477469354.453:  -5303  82  10  821
1477469354.453:  -5337  82  10  821
1477469354.453:  -5329  82  10  821
1477469354.453:  -5300  82  10  821
1477469354.453:  -5288  82  10  821
1477469354.454:  -5302  82  10  821
1477469354.454:  -5309  82  10  821
1477469354.454:  -5276  82  10  821
1477469354.454:  -5213  82  10  821
1477469354.459:  -5158  82  10  821
1477469354.459:  -5137  82  10  821
1477469354.462:  -5142  82  10  821
1477469354.462:  -5144  82  10  821
1477469354.464:  -5121  82  10  821
1477469354.465:  -5079  82  10  821
1477469354.468:  -5035  82  10  821
1477469354.469:  -4991  82  10  821
1477469354.483:  -4943  82  10  821
1477469354.483:  -4901  82  10  821
1477469354.483:  -4877  82  10  821
1477469354.483:  -4876  82  10  821
1477469354.484:  -4891  82  10  821
1477469354.484:  -4900  82  10  821
1477469354.484:  -4885  82  10  821
1477469354.486:  -4851  82  10  821
1477469354.490:  -4817  82  10  821
1477469354.490:  -4794  82  10  821
1477469354.492:  -4781  82  10  821
1477469354.493:  -4768  82  10  821
1477469354.494:  -4755  82  10  821
1477469354.497:  -4748  82  10  821
1477469354.505:  -4761  82  10  821
1477469354.505:  -4787  82  10  821
1477469354.506:  -4808  82  10  821
1477469354.506:  -4809  82  10  821
1477469354.507:  -4798  82  10  821
1477469354.508:  -4787  82  10  821
1477469354.511:  -4771  82  10  821
1477469354.513:  -4736  82  10  821
1477469354.518:  -4681  82  10  821
1477469354.518:  -4626  82  10  821
1477469354.520:  -4603  82  10  821
1477469354.522:  -4616  82  10  821
1477469354.523:  -4630  82  10  821
1477469354.525:  -4606  82  10  821
1477469354.527:  -4545  82  10  821
1477469354.531:  -4478  82  10  821
1477469354.531:  -4434  82  10  821
1477469354.533:  -4413  82  10  821
1477469354.534:  -4394  82  10  821
1477469354.536:  -4360  82  10  821
1477469354.550:  -4320  82  10  821
1477469354.550:  -4290  82  10  821
1477469354.550:  -4275  82  10  821
1477469354.550:  -4260  82  10  821
1477469354.550:  -4231  82  10  821
1477469354.550:  -4186  82  10  821
1477469354.550:  -4136  82  10  821
1477469354.552:  -4096  82  10  821
1477469354.555:  -4078  82  10  821
1477469354.559:  -4081  82  10  821
1477469354.559:  -4092  82  10  821
1477469354.561:  -4099  82  10  821
1477469354.562:  -4094  82  10  821
1477469354.563:  -4080  82  10  821
1477469354.574:  -4063  82  10  821
1477469354.575:  -4042  82  10  821
1477469354.575:  -4004  82  10  821
1477469354.575:  -3943  82  10  821
1477469354.575:  -3875  82  10  821
1477469354.578:  -3830  82  10  821
1477469354.579:  -3824  82  10  821
1477469354.580:  -3850  82  10  821
1477469354.582:  -3878  82  10  821
1477469354.587:  -3875  82  10  821
1477469354.588:  -3837  82  10  821
1477469354.589:  -3784  82  10  821
1477469354.606:  -3738  82  10  821
1477469354.606:  -3708  82  10  821
1477469354.606:  -3690  82  10  821
1477469354.607:  -3671  82  10  821
1477469354.607:  -3639  82  10  821
1477469354.607:  -3611  82  10  821
1477469354.608:  -3609  82  10  821
1477469354.608:  -3632  82  10  821
1477469354.609:  -3651  82  10  821
1477469354.609:  -3633  82  10  821
1477469354.610:  -3578  82  10  821
1477469354.614:  -3519  82  10  821
1477469354.614:  -3492  82  10  821
1477469354.616:  -3495  82  10  821
1477469354.617:  -3497  82  10  821
1477469354.619:  -3481  82  10  821
1477469354.621:  -3458  82  10  821
1477469354.623:  -3442  82  10  821
1477469354.628:  -3421  82  10  821
1477469354.628:  -3373  82  10  821
1477469354.639:  -3282  82  10  821
1477469354.639:  -3156  82  10  821
1477469354.640:  -3013  82  10  821
1477469354.641:  -2869  82  10  821
1477469354.642:  -2726  82  10  821
1477469354.642:  -2588  82  10  821
1477469354.643:  -2456  82  10  821
1477469354.643:  -2330  82  10  821
1477469354.646:  -2218  82  10  821
1477469354.647:  -2136  82  10  821
1477469354.658:  -2088  82  10  821
1477469354.658:  -2053  82  10  821
1477469354.658:  -2010  82  10  821
1477469354.658:  -1965  82  10  821
1477469354.659:  -1937  82  10  821
1477469354.687:  -1933  82  10  821
1477469354.688:  -1933  82  10  821
1477469354.689:  -1911  82  10  821
1477469354.690:  -1862  82  10  821
1477469354.691:  -1809  82  10  821
1477469354.691:  -1763  82  10  821
1477469354.692:  -1714  82  10  821
1477469354.693:  -1650  82  10  821
1477469354.693:  -1589  82  10  821
1477469354.694:  -1548  82  10  821
1477469354.694:  -1522  82  10  821
1477469354.698:  -1491  82  10  821
1477469354.699:  -1438  82  10  821
1477469354.699:  -1369  82  10  821
1477469354.700:  -1297  82  10  821
1477469354.700:  -1221  82  10  821
1477469354.700:  -1133  82  10  821
1477469354.700:  -1042  82  10  821
1477469354.701:   -970  82  10  821
1477469354.702:   -932  82  10  821
1477469354.702:   -916  82  10  821
1477469354.702:   -908  82  10  821
1477469354.702:   -904  82  10  821
1477469354.703:   -903  82  10  821
1477469354.704:   -898  82  10  821
1477469354.725:   -881  82  10  821
1477469354.725:   -842  82  10  821
1477469354.725:   -783  82  10  821
1477469354.725:   -719  82  10  821
1477469354.725:   -660  82  10  821
1477469354.726:   -610  82  10  821
1477469354.726:   -579  82  10  821
1477469354.726:   -563  82  10  821
1477469354.727:   -549  82  10  821
1477469354.728:   -521  82  10  821
1477469354.729:   -481  82  10  821
1477469354.729:   -439  82  10  821
1477469354.730:   -402  82  10  821
1477469354.733:   -366  82  10  821
1477469354.734:   -327  82  10  821
1477469354.737:   -296  82  10  821
1477469354.738:   -293  82  10  821
1477469354.742:   -326  82  10  821
1477469354.753:   -385  82  10  821
1477469354.754:   -443  82  10  821
1477469354.754:   -488  82  10  821
1477469354.755:   -517  82  10  821
1477469354.755:   -527  82  10  821
1477469354.756:   -526  82  10  821
1477469354.757:   -532  82  10  821
1477469354.758:   -557  82  10  821
1477469354.760:   -603  82  10  821
1477469354.760:   -665  82  10  821
1477469354.762:   -758  82  10  821
1477469354.763:   -918  82  10  821
1477469354.766:  -1183  82  10  821
1477469354.770:  -1551  82  10  821
1477469354.777:  -1982  82  10  821
1477469354.777:  -2448  82  10  821
1477469354.777:  -2948  82  10  821
1477469354.777:  -3464  82  10  821
1477469354.777:  -3911  82  10  821
1477469354.783:  -4177  82  10  821
1477469354.783:  -4207  82  10  821
1477469354.784:  -4047  82  10  821
1477469354.788:  -3776  82  10  821
1477469354.789:  -3396  68   9  839
1477469354.791:  -2822  68   9  839
1477469354.792:  -1995  68   9  839
1477469354.793:  -1005  68   9  839
1477469354.796:    -41  68   9  839
1477469354.808:    754  68   9  839
1477469354.809:   1384  68   9  839
1477469354.809:   1951  68   9  839
1477469354.810:   2523  68   9  839
1477469354.810:   3069  68   9  839
1477469354.811:   3504  68   9  839
1477469354.812:   3786  68   9  839
1477469354.812:   3928  68   9  839
1477469354.818:   3959  68   9  839
1477469354.818:   3898  68   9  839
1477469354.828:   3750  68   9  839
1477469354.829:   3519  68   9  839
1477469354.830:   3217  68   9  839
1477469354.830:   2852  68   9  839
1477469354.831:   2437  68   9  839
1477469354.832:   1995  68   9  839
1477469354.832:   1574  68   9  839
1477469354.834:   1217  68   9  839
1477469354.835:    938  68   9  839
1477469354.837:    724  68   9  839
1477469354.837:    559  68   9  839
1477469354.838:    427  68   9  839
1477469354.842:    325  68   9  839
1477469354.842:    252  68   9  839
1477469354.857:    205  68   9  839
1477469354.858:    173  68   9  839
1477469354.859:    150  68   9  839
1477469354.859:    129  68   9  839
1477469354.859:    104  68   9  839
1477469354.860:     66  68   9  839
1477469354.860:     13  68   9  839
1477469354.861:    -56  68   9  839
1477469354.862:   -136  68   9  839
1477469354.869:   -204  68   9  839
1477469354.869:   -240  68   9  839
1477469354.870:   -242  68   9  839
1477469354.870:   -228  68   9  839
1477469354.872:   -224  68   9  839
1477469354.875:   -246  68   9  839
1477469354.876:   -280  68   9  839
1477469354.878:   -302  68   9  839
1477469354.879:   -310  68   9  839
1477469354.889:   -334  68   9  839
1477469354.890:   -393  68   9  839
1477469354.891:   -468  68   9  839
1477469354.892:   -510  68   9  839
1477469354.898:   -490  68   9  839
1477469354.898:   -436  68   9  839
1477469354.910:   -412  68   9  839
1477469354.910:   -452  68   9  839
1477469354.910:   -519  68   9  839
1477469354.910:   -551  68   9  839
1477469354.911:   -526  68   9  839
1477469354.911:   -480  68   9  839
1477469354.911:   -456  68   9  839
1477469354.911:   -458  68   9  839
1477469354.911:   -455  68   9  839
1477469354.911:   -418  68   9  839
1477469354.911:   -353  68   9  839
1477469354.913:   -293  68   9  839
1477469354.915:   -260  68   9  839
1477469354.920:   -249  68   9  839
1477469354.920:   -252  68   9  839
1477469354.922:   -263  68   9  839
1477469354.923:   -278  68   9  839
1477469354.925:   -288  68   9  839
1477469354.926:   -286  68   9  839
1477469354.929:   -268  68   9  839
1477469354.934:   -245  68   9  839
1477469354.934:   -233  68   9  839
1477469354.947:   -235  68   9  839
1477469354.947:   -244  68   9  839
1477469354.947:   -261  68   9  839
1477469354.947:   -289  68   9  839
1477469354.947:   -319  68   9  839
1477469354.948:   -334  68   9  839
1477469354.948:   -326  68   9  839
1477469354.949:   -306  68   9  839
1477469354.950:   -292  68   9  839
1477469354.952:   -296  68   9  839
1477469354.954:   -313  68   9  839
1477469354.957:   -324  68   9  839
1477469354.958:   -328  68   9  839
1477469354.960:   -341  68   9  839
1477469354.972:   -367  68   9  839
1477469354.973:   -399  68   9  839
1477469354.973:   -422  68   9  839
1477469354.973:   -428  68   9  839
1477469354.973:   -420  68   9  839
1477469354.975:   -408  68   9  839
1477469354.975:   -405  68   9  839
1477469354.977:   -417  68   9  839
1477469354.979:   -446  68   9  839
1477469354.982:   -489  68   9  839
1477469354.982:   -533  68   9  839
1477469354.984:   -566  68   9  839
1477469354.989:   -587  68   9  839
1477469354.989:   -596  68   9  839
1477469354.994:   -592  68   9  839
1477469354.995:   -582  68   9  839
1477469355.004:   -577  68   9  839
1477469355.004:   -585  68   9  839
1477469355.005:   -602  68   9  839
1477469355.005:   -622  68   9  839
1477469355.005:   -643  68   9  839
1477469355.007:   -664  68   9  839
1477469355.008:   -686  68   9  839
1477469355.009:   -705  68   9  839
1477469355.012:   -708  68   9  839
1477469355.012:   -699  68   9  839
1477469355.016:   -693  68   9  839
1477469355.016:   -704  68   9  839
1477469355.018:   -727  68   9  839
1477469355.019:   -749  68   9  839
1477469355.029:   -762  68   9  839
1477469355.029:   -765  68   9  839
1477469355.029:   -766  68   9  839
1477469355.030:   -774  68   9  839
1477469355.030:   -786  68   9  839
1477469355.030:   -798  68   9  839
1477469355.033:   -806  68   9  839
1477469355.037:   -811  68   9  839
1477469355.038:   -816  68   9  839
1477469355.039:   -831  68   9  839
1477469355.040:   -857  68   9  839
1477469355.043:   -884  68   9  839
1477469355.053:   -893  68   9  839
1477469355.053:   -874  68   9  839
1477469355.053:   -832  68   9  839
1477469355.053:   -785  68   9  839
1477469355.053:   -755  68   9  839
1477469355.054:   -749  68   9  839
1477469355.057:   -756  68   9  839
1477469355.058:   -763  68   9  839
1477469355.063:   -767  68   9  839
1477469355.063:   -771  68   9  839
1477469355.065:   -779  68   9  839
1477469355.066:   -788  68   9  839
1477469355.069:   -788  68   9  839
1477469355.071:   -767  68   9  839
1477469355.080:   -735  68   9  839
1477469355.081:   -713  68   9  839
1477469355.081:   -713  68   9  839
1477469355.082:   -730  68   9  839
1477469355.082:   -752  68   9  839
1477469355.082:   -763  68   9  839
1477469355.084:   -762  68   9  839
1477469355.086:   -758  68   9  839
1477469355.092:   -755  68   9  839
1477469355.137:   -751  68   9  839
1477469355.148:   -745  68   9  839
1477469355.148:   -744  68   9  839
1477469355.148:   -754  68   9  839
1477469355.149:   -776  68   9  839
1477469355.149:   -810  68   9  839
1477469355.149:   -848  68   9  839
1477469355.149:   -884  68   9  839
1477469355.149:   -914  68   9  839
1477469355.149:   -934  68   9  839
1477469355.149:   -942  68   9  839
1477469355.150:   -943  68   9  839
1477469355.150:   -951  68   9  839
1477469355.150:   -975  68   9  839
1477469355.150:  -1018  68   9  839
1477469355.150:  -1075  68   9  839
1477469355.150:  -1129  68   9  839
1477469355.150:  -1161  68   9  839
1477469355.151:  -1163  68   9  839
1477469355.151:  -1142  68   9  839
1477469355.151:  -1108  68   9  839
1477469355.151:  -1069  68   9  839
1477469355.152:  -1030  68   9  839
1477469355.152:   -991  68   9  839
1477469355.152:   -953  68   9  839
1477469355.152:   -923  68   9  839
1477469355.152:   -902  68   9  839
1477469355.152:   -887  68   9  839
1477469355.152:   -877  68   9  839
1477469355.153:   -877  68   9  839
1477469355.153:   -884  68   9  839
1477469355.153:   -886  68   9  839
1477469355.154:   -875  68   9  839
1477469355.155:   -850  68   9  839
1477469355.159:   -818  68   9  839
1477469355.161:   -792  68   9  839
1477469355.161:   -775  68   9  839
1477469355.163:   -757  68   9  839
1477469355.164:   -719  68   9  839
1477469355.165:   -655  68   9  839
1477469355.171:   -567  68   9  839
1477469355.171:   -479  68   9  839
1477469355.173:   -418  68   9  839
1477469355.174:   -404  68   9  839
1477469355.177:   -425  68   9  839
1477469355.178:   -452  68   9  839
1477469355.179:   -461  68   9  839
1477469355.185:   -448  68   9  839
1477469355.185:   -430  68   9  839
1477469355.187:   -425  68   9  839
1477469355.188:   -434  68   9  839
1477469355.203:   -438  68   9  839
1477469355.203:   -432  68   9  839
1477469355.203:   -430  68   9  839
1477469355.203:   -449  68   9  839
1477469355.203:   -491  68   9  839
1477469355.203:   -544  68   9  839
1477469355.204:   -592  68   9  839
1477469355.204:   -633  68   9  839
1477469355.206:   -675  68   9  839
1477469355.215:   -715  68   9  839
1477469355.224:   -740  68   9  839
1477469355.224:   -744  68   9  839
1477469355.225:   -742  68   9  839
1477469355.225:   -753  68   9  839
1477469355.225:   -791  68   9  839
1477469355.225:   -852  68   9  839
1477469355.225:   -917  68   9  839
1477469355.256:   -967  68   9  839
1477469355.257:   -995  68   9  839
1477469355.257:  -1009  68   9  839
1477469355.257:  -1015  68   9  839
1477469355.257:  -1019  68   9  839
1477469355.259:  -1028  68   9  839
1477469355.259:  -1044  68   9  839
1477469355.259:  -1064  68   9  839
1477469355.266:  -1088  68   9  839
1477469355.266:  -1109  68   9  839
1477469355.266:  -1122  68   9  839
1477469355.266:  -1129  68   9  839
1477469355.267:  -1137  68   9  839
1477469355.267:  -1145  68   9  839
1477469355.267:  -1144  68   9  839
1477469355.269:  -1139  68   9  839
1477469355.269:  -1141  68   9  839
1477469355.269:  -1157  68   9  839
1477469355.269:  -1177  68   9  839
1477469355.270:  -1187  68   9  839
1477469355.270:  -1187  68   9  839
1477469355.270:  -1197  68   9  839
1477469355.272:  -1230  68   9  839
1477469355.272:  -1266  68   9  839
1477469355.274:  -1272  68   9  839
1477469355.274:  -1247  68   9  839
1477469355.276:  -1230  68   9  839
1477469355.277:  -1248  68   9  839
1477469355.283:  -1286  68   9  839
1477469355.292:  -1302  68   9  839
1477469355.292:  -1272  68   9  839
1477469355.293:  -1216  68   9  839
1477469355.293:  -1170  68   9  839
1477469355.293:  -1136  68   9  839
1477469355.294:  -1096  68   9  839
1477469355.295:  -1052  68   9  839
1477469355.295:  -1028  68   9  839
1477469355.297:  -1041  68   9  839
1477469355.298:  -1077  68   9  839
1477469355.299:  -1113  68   9  839
1477469355.302:  -1138  68   9  839
1477469355.312:  -1162  68   9  839
1477469355.312:  -1191  68   9  839
1477469355.312:  -1209  68   9  839
1477469355.313:  -1195  68   9  839
1477469355.314:  -1162  68   9  839
1477469355.314:  -1144  68   9  839
1477469355.317:  -1154  68   9  839
1477469355.318:  -1175  68   9  839
1477469355.322:  -1186  68   9  839
1477469355.323:  -1187  68   9  839
1477469355.324:  -1198  68   9  839
1477469355.325:  -1231  68   9  839
1477469355.327:  -1264  68   9  839
1477469355.329:  -1266  68   9  839
1477469355.332:  -1235  68   9  839
1477469355.336:  -1204  68   9  839
1477469355.336:  -1198  68   9  839
1477469355.338:  -1214  68   9  839
1477469355.339:  -1231  68   9  839
1477469355.342:  -1235  68   9  839
1477469355.343:  -1230  68   9  839
1477469355.345:  -1225  68   9  839
1477469355.363:  -1220  68   9  839
1477469355.364:  -1201  68   9  839
1477469355.364:  -1171  68   9  839
1477469355.364:  -1147  68   9  839
1477469355.364:  -1149  68   9  839
1477469355.365:  -1174  68   9  839
1477469355.365:  -1209  68   9  839
1477469355.365:  -1239  68   9  839
1477469355.365:  -1258  68   9  839
1477469355.365:  -1271  68   9  839
1477469355.367:  -1285  68   9  839
1477469355.368:  -1299  68   9  839
1477469355.371:  -1308  68   9  839
1477469355.373:  -1313  68   9  839
1477469355.384:  -1314  68   9  839
1477469355.384:  -1312  68   9  839
1477469355.385:  -1311  68   9  839
1477469355.385:  -1313  68   9  839
1477469355.385:  -1314  68   9  839
1477469355.386:  -1307  68   9  839
1477469355.387:  -1286  68   9  839
1477469355.391:  -1249  68   9  839
1477469355.403:  -1196  68   9  839
1477469355.403:  -1146  68   9  839
1477469355.404:  -1118  68   9  839
1477469355.404:  -1122  68   9  839
1477469355.404:  -1156  68   9  839
1477469355.404:  -1202  68   9  839
1477469355.405:  -1241  68   9  839
1477469355.405:  -1261  68   9  839
1477469355.407:  -1265  68   9  839
1477469355.408:  -1256  68   9  839
1477469355.409:  -1243  68   9  839
1477469355.412:  -1231  68   9  839
1477469355.414:  -1232  68   9  839
1477469355.419:  -1240  68   9  839
1477469355.419:  -1251  68   9  839
1477469355.421:  -1265  68   9  839
1477469355.422:  -1286  68   9  839
1477469355.423:  -1319  68   9  839
1477469355.426:  -1364  68   9  839
1477469355.428:  -1410  68   9  839
1477469355.435:  -1439  68   9  839
1477469355.435:  -1447  68   9  839
1477469355.435:  -1449  68   9  839
1477469355.436:  -1464  68   9  839
1477469355.437:  -1496  68   9  839
1477469355.442:  -1537  68   9  839
1477469355.443:  -1570  68   9  839
1477469355.446:  -1582  68   9  839
1477469355.446:  -1581  68   9  839
1477469355.448:  -1582  68   9  839
1477469355.450:  -1589  68   9  839
1477469355.452:  -1594  68   9  839
1477469355.454:  -1594  68   9  839
1477469355.456:  -1593  68   9  839
1477469355.460:  -1594  68   9  839
1477469355.460:  -1595  68   9  839
1477469355.471:  -1591  68   9  839
1477469355.471:  -1576  68   9  839
1477469355.471:  -1557  68   9  839
1477469355.472:  -1540  68   9  839
1477469355.472:  -1521  68   9  839
1477469355.472:  -1493  68   9  839
1477469355.473:  -1466  68   9  839
1477469355.474:  -1461  68   9  839
1477469355.479:  -1485  68   9  839
1477469355.479:  -1533  68   9  839
1477469355.488:  -1580  68   9  839
1477469355.489:  -1610  68   9  839
1477469355.489:  -1621  68   9  839
1477469355.489:  -1626  68   9  839
1477469355.491:  -1630  68   9  839
1477469355.491:  -1627  68   9  839
1477469355.492:  -1618  68   9  839
1477469355.494:  -1612  68   9  839
1477469355.497:  -1616  68   9  839
1477469355.502:  -1639  68   9  839
1477469355.503:  -1676  68   9  839
1477469355.503:  -1716  68   9  839
1477469355.519:  -1750  68   9  839
1477469355.520:  -1777  68   9  839
1477469355.538:  -1796  68   9  839
1477469355.539:  -1805  68   9  839
1477469355.540:  -1807  68   9  839
1477469355.540:  -1812  68   9  839
1477469355.541:  -1830  68   9  839
1477469355.541:  -1859  68   9  839
1477469355.542:  -1889  68   9  839
1477469355.543:  -1904  68   9  839
1477469355.543:  -1899  68   9  839
1477469355.544:  -1886  68   9  839
1477469355.545:  -1868  68   9  839
1477469355.545:  -1840  68   9  839
1477469355.559:  -1800  68   9  839
1477469355.560:  -1766  68   9  839
1477469355.560:  -1753  68   9  839
1477469355.561:  -1761  68   9  839
1477469355.561:  -1774  68   9  839
1477469355.561:  -1781  68   9  839
1477469355.562:  -1781  68   9  839
1477469355.562:  -1783  68   9  839
1477469355.562:  -1784  68   9  839
1477469355.563:  -1771  68   9  839
1477469355.563:  -1748  68   9  839
1477469355.563:  -1738  68   9  839
1477469355.564:  -1753  68   9  839
1477469355.564:  -1784  68   9  839
1477469355.564:  -1814  68   9  839
1477469355.565:  -1842  68   9  839
1477469355.565:  -1882  68   9  839
1477469355.565:  -1938  68   9  839
1477469355.570:  -1988  68   9  839
1477469355.570:  -2006  68   9  839
1477469355.580:  -1994  68   9  839
1477469355.581:  -1990  68   9  839
1477469355.581:  -2019  68   9  839
1477469355.582:  -2067  68   9  839
1477469355.583:  -2110  68   9  839
1477469355.583:  -2135  68   9  839
1477469355.586:  -2154  68   9  839
1477469355.587:  -2181  68   9  839
1477469355.590:  -2221  68   9  839
1477469355.590:  -2261  68   9  839
1477469355.592:  -2294  68   9  839
1477469355.594:  -2330  68   9  839
1477469355.595:  -2376  68   9  839
1477469355.597:  -2420  68   9  839
1477469355.598:  -2448  68   9  839
1477469355.602:  -2445  68   9  839
1477469355.603:  -2411  68   9  839
1477469355.605:  -2354  68   9  839
1477469355.606:  -2282  68   9  839
1477469355.609:  -2191  68   9  839
1477469355.622:  -2080  68   9  839
1477469355.622:  -1963  68   9  839
1477469355.623:  -1867  68   9  839
1477469355.623:  -1812  68   9  839
1477469355.623:  -1801  68   9  839
1477469355.623:  -1818  68   9  839
1477469355.624:  -1846  68   9  839
1477469355.624:  -1876  68   9  839
1477469355.625:  -1908  68   9  839
1477469355.630:  -1933  68   9  839
1477469355.630:  -1931  68   9  839
1477469355.632:  -1898  68   9  839
1477469355.646:  -1857  68   9  839
1477469355.646:  -1830  68   9  839
1477469355.646:  -1821  68   9  839
1477469355.646:  -1814  68   9  839
1477469355.647:  -1790  68   9  839
1477469355.647:  -1750  68   9  839
1477469355.647:  -1716  68   9  839
1477469355.648:  -1700  68   9  839
1477469355.650:  -1694  68   9  839
1477469355.652:  -1686  68   9  839
1477469355.653:  -1675  68   9  839
1477469355.658:  -1667  68   9  839
1477469355.659:  -1659  68   9  839
1477469355.662:  -1645  68   9  839
1477469355.662:  -1626  68   9  839
1477469355.665:  -1608  68   9  839
1477469355.677:  -1599  68   9  839
1477469355.677:  -1592  68   9  839
1477469355.677:  -1568  68   9  839
1477469355.678:  -1525  68   9  839
1477469355.678:  -1483  68   9  839
1477469355.678:  -1470  68   9  839
1477469355.678:  -1490  68   9  839
1477469355.679:  -1533  68   9  839
1477469355.681:  -1580  68   9  839
1477469355.685:  -1614  68   9  839
1477469355.696:  -1632  68   9  839
1477469355.697:  -1638  68   9  839
1477469355.697:  -1634  68   9  839
1477469355.697:  -1629  68   9  839
1477469355.697:  -1635  68   9  839
1477469355.699:  -1657  68   9  839
1477469355.699:  -1689  68   9  839
1477469355.700:  -1722  68   9  839
1477469355.701:  -1752  68   9  839
1477469355.703:  -1774  61   8  833
1477469355.704:  -1794  61   8  833
1477469355.706:  -1821  61   8  833
1477469355.712:  -1852  61   8  833
1477469355.713:  -1878  61   8  833
1477469355.713:  -1901  61   8  833
1477469355.718:  -1933  61   8  833
1477469355.732:  -1994  61   8  833
1477469355.732:  -2085  61   8  833
1477469355.732:  -2179  61   8  833
1477469355.732:  -2239  61   8  833
1477469355.732:  -2249  61   8  833
1477469355.732:  -2235  61   8  833
1477469355.733:  -2234  61   8  833
1477469355.733:  -2269  61   8  833
1477469355.733:  -2357  61   8  833
1477469355.733:  -2515  61   8  833
1477469355.740:  -2769  61   8  833
1477469355.741:  -3143  61   8  833
1477469355.743:  -3632  61   8  833
1477469355.743:  -4188  61   8  833
1477469355.756:  -4739  61   8  833
1477469355.756:  -5217  61   8  833
1477469355.756:  -5568  61   8  833
1477469355.756:  -5761  61   8  833
1477469355.756:  -5798  61   8  833
1477469355.757:  -5689  61   8  833
1477469355.758:  -5420  61   8  833
1477469355.758:  -4946  61   8  833
1477469355.760:  -4239  61   8  833
1477469355.761:  -3338  61   8  833
1477469355.766:  -2357  61   8  833
1477469355.767:  -1419  61   8  833
1477469355.777:   -567  61   8  833
1477469355.777:    249  61   8  833
1477469355.777:   1074  61   8  833
1477469355.778:   1860  61   8  833
1477469355.778:   2483  61   8  833
1477469355.778:   2854  61   8  833
1477469355.779:   2994  61   8  833
1477469355.781:   3001  61   8  833
1477469355.785:   2947  61   8  833
1477469355.786:   2823  61   8  833
1477469355.787:   2579  61   8  833
1477469355.789:   2213  61   8  833
1477469355.791:   1784  61   8  833
1477469355.793:   1355  61   8  833
1477469355.804:    955  61   8  833
1477469355.804:    586  61   8  833
1477469355.804:    248  61   8  833
1477469355.804:    -40  61   8  833
1477469355.804:   -252  61   8  833
1477469355.809:   -383  61   8  833
1477469355.809:   -458  61   8  833
1477469355.809:   -512  61   8  833
1477469355.810:   -565  61   8  833
1477469355.811:   -622  61   8  833
1477469355.819:   -679  61   8  833
1477469355.819:   -730  61   8  833
1477469355.821:   -781  61   8  833
1477469355.822:   -837  61   8  833
1477469355.823:   -896  61   8  833
1477469355.824:   -950  61   8  833
1477469355.825:  -1001  61   8  833
1477469355.831:  -1044  61   8  833
1477469355.837:  -1068  61   8  833
1477469355.837:  -1070  61   8  833
1477469355.838:  -1066  61   8  833
1477469355.838:  -1078  61   8  833
1477469355.839:  -1112  61   8  833
1477469355.839:  -1153  61   8  833
1477469355.842:  -1174  61   8  833
1477469355.844:  -1168  61   8  833
1477469355.849:  -1158  61   8  833
1477469355.849:  -1159  61   8  833
1477469355.852:  -1162  61   8  833
1477469355.852:  -1150  61   8  833
1477469355.853:  -1128  61   8  833
1477469355.856:  -1114  61   8  833
1477469355.860:  -1121  61   8  833
1477469355.863:  -1152  61   8  833
1477469355.867:  -1191  61   8  833
1477469355.867:  -1226  61   8  833
1477469355.867:  -1250  61   8  833
1477469355.868:  -1259  61   8  833
1477469355.870:  -1254  61   8  833
1477469355.872:  -1249  61   8  833
1477469355.880:  -1265  61   8  833
1477469355.881:  -1302  61   8  833
1477469355.886:  -1344  61   8  833
1477469355.886:  -1382  61   8  833
1477469355.887:  -1420  61   8  833
1477469355.888:  -1464  61   8  833
1477469355.889:  -1507  61   8  833
1477469355.890:  -1533  61   8  833
1477469355.890:  -1533  61   8  833
1477469355.892:  -1517  61   8  833
1477469355.893:  -1505  61   8  833
1477469355.894:  -1506  61   8  833
1477469355.897:  -1512  61   8  833
1477469355.899:  -1525  61   8  833
1477469355.904:  -1545  61   8  833
1477469355.904:  -1565  61   8  833
1477469355.905:  -1574  61   8  833
1477469355.907:  -1571  61   8  833
1477469355.908:  -1559  61   8  833
1477469355.910:  -1550  61   8  833
1477469355.921:  -1545  61   8  833
1477469355.922:  -1545  61   8  833
1477469355.923:  -1545  61   8  833
1477469355.923:  -1552  61   8  833
1477469355.924:  -1565  61   8  833
1477469355.924:  -1577  61   8  833
1477469355.925:  -1579  61   8  833
1477469355.932:  -1579  61   8  833
1477469355.934:  -1582  61   8  833
1477469355.934:  -1584  61   8  833
1477469355.934:  -1579  61   8  833
1477469355.935:  -1571  61   8  833
1477469355.935:  -1570  61   8  833
1477469355.963:  -1589  61   8  833
1477469355.967:  -1625  61   8  833
1477469355.969:  -1660  61   8  833
1477469355.969:  -1677  61   8  833
1477469355.970:  -1682  61   8  833
1477469355.970:  -1683  61   8  833
1477469355.970:  -1682  61   8  833
1477469355.971:  -1681  61   8  833
1477469355.973:  -1688  61   8  833
1477469355.974:  -1713  61   8  833
1477469355.974:  -1758  61   8  833
1477469355.974:  -1809  61   8  833
1477469355.975:  -1844  61   8  833
1477469355.988:  -1854  61   8  833
1477469355.988:  -1851  61   8  833
1477469355.989:  -1850  61   8  833
1477469355.989:  -1850  61   8  833
1477469355.989:  -1848  61   8  833
1477469355.989:  -1841  61   8  833
1477469355.989:  -1834  61   8  833
1477469355.990:  -1831  61   8  833
1477469355.990:  -1831  61   8  833
1477469355.990:  -1828  61   8  833
1477469355.991:  -1820  61   8  833
1477469355.991:  -1806  61   8  833
1477469355.992:  -1779  61   8  833
1477469355.992:  -1730  61   8  833
1477469355.992:  -1664  61   8  833
1477469355.993:  -1609  61   8  833
1477469355.996:  -1587  61   8  833
1477469356.000:  -1596  61   8  833
1477469356.010:  -1613  61   8  833
1477469356.072:  -1625  61   8  833
1477469356.084:  -1631  61   8  833
1477469356.084:  -1640  61   8  833
1477469356.084:  -1651  61   8  833
1477469356.084:  -1650  61   8  833
1477469356.084:  -1635  61   8  833
1477469356.085:  -1624  61   8  833
1477469356.085:  -1633  61   8  833
1477469356.085:  -1655  61   8  833
1477469356.085:  -1675  61   8  833
1477469356.085:  -1683  61   8  833
1477469356.085:  -1686  61   8  833
1477469356.086:  -1693  61   8  833
1477469356.086:  -1698  61   8  833
1477469356.086:  -1687  61   8  833
1477469356.086:  -1651  61   8  833
1477469356.086:  -1602  61   8  833
1477469356.087:  -1563  61   8  833
1477469356.087:  -1542  61   8  833
1477469356.087:  -1538  61   8  833
1477469356.088:  -1542  61   8  833
1477469356.088:  -1543  61   8  833
1477469356.089:  -1533  61   8  833
1477469356.089:  -1515  61   8  833
1477469356.089:  -1492  61   8  833
1477469356.089:  -1469  61   8  833
1477469356.089:  -1455  61   8  833
1477469356.090:  -1452  61   8  833
1477469356.090:  -1453  61   8  833
1477469356.090:  -1453  61   8  833
1477469356.090:  -1457  61   8  833
1477469356.090:  -1471  61   8  833
1477469356.090:  -1492  61   8  833
1477469356.091:  -1508  61   8  833
1477469356.091:  -1505  61   8  833
1477469356.092:  -1482  61   8  833
1477469356.092:  -1459  61   8  833
1477469356.092:  -1460  61   8  833
1477469356.092:  -1482  61   8  833
1477469356.093:  -1509  61   8  833
1477469356.093:  -1531  61   8  833
1477469356.093:  -1553  61   8  833
1477469356.093:  -1581  61   8  833
1477469356.110:  -1613  61   8  833
1477469356.110:  -1637  61   8  833
1477469356.110:  -1646  61   8  833
1477469356.110:  -1648  61   8  833
1477469356.110:  -1662  61   8  833
1477469356.111:  -1691  61   8  833
1477469356.111:  -1725  61   8  833
1477469356.111:  -1760  61   8  833
1477469356.112:  -1796  61   8  833
1477469356.112:  -1831  61   8  833
1477469356.112:  -1857  61   8  833
1477469356.112:  -1863  61   8  833
1477469356.112:  -1849  61   8  833
1477469356.113:  -1831  61   8  833
1477469356.115:  -1826  61   8  833
1477469356.115:  -1836  61   8  833
1477469356.117:  -1847  61   8  833
1477469356.120:  -1849  61   8  833
1477469356.121:  -1847  61   8  833
1477469356.123:  -1847  61   8  833
1477469356.124:  -1850  61   8  833
1477469356.130:  -1846  61   8  833
1477469356.131:  -1825  61   8  833
1477469356.133:  -1795  61   8  833
1477469356.135:  -1779  61   8  833
1477469356.136:  -1790  61   8  833
1477469356.137:  -1821  61   8  833
1477469356.143:  -1855  61   8  833
1477469356.154:  -1879  61   8  833
1477469356.154:  -1891  61   8  833
1477469356.155:  -1897  61   8  833
1477469356.155:  -1900  61   8  833
1477469356.156:  -1892  61   8  833
1477469356.156:  -1872  61   8  833
1477469356.157:  -1847  61   8  833
1477469356.157:  -1831  61   8  833
1477469356.158:  -1829  61   8  833
1477469356.159:  -1839  61   8  833
1477469356.161:  -1858  61   8  833
1477469356.163:  -1881  61   8  833
1477469356.175:  -1899  61   8  833
1477469356.175:  -1907  61   8  833
1477469356.175:  -1900  61   8  833
1477469356.177:  -1876  61   8  833
1477469356.179:  -1844  61   8  833
1477469356.179:  -1819  61   8  833
1477469356.179:  -1807  61   8  833
1477469356.179:  -1811  61   8  833
1477469356.182:  -1824  61   8  833
1477469356.187:  -1833  61   8  833
1477469356.187:  -1830  61   8  833
1477469356.191:  -1825  61   8  833
1477469356.192:  -1829  61   8  833
1477469356.192:  -1841  61   8  833
1477469356.192:  -1847  61   8  833
1477469356.193:  -1844  61   8  833
1477469356.196:  -1841  61   8  833
1477469356.197:  -1851  61   8  833
1477469356.226:  -1878  61   8  833
1477469356.226:  -1902  61   8  833
1477469356.227:  -1904  61   8  833
1477469356.227:  -1892  61   8  833
1477469356.228:  -1884  61   8  833
1477469356.229:  -1885  61   8  833
1477469356.229:  -1885  61   8  833
1477469356.230:  -1880  61   8  833
1477469356.230:  -1880  61   8  833
1477469356.230:  -1900  61   8  833
1477469356.231:  -1945  61   8  833
1477469356.231:  -2000  61   8  833
1477469356.232:  -2040  61   8  833
1477469356.232:  -2058  61   8  833
1477469356.232:  -2067  61   8  833
1477469356.233:  -2073  61   8  833
1477469356.265:  -2075  61   8  833
1477469356.266:  -2073  61   8  833
1477469356.272:  -2071  61   8  833
1477469356.272:  -2078  61   8  833
1477469356.272:  -2099  61   8  833
1477469356.273:  -2128  61   8  833
1477469356.273:  -2155  61   8  833
1477469356.273:  -2172  61   8  833
1477469356.274:  -2176  61   8  833
1477469356.274:  -2169  61   8  833
1477469356.274:  -2155  61   8  833
1477469356.274:  -2145  61   8  833
1477469356.274:  -2143  61   8  833
1477469356.276:  -2144  61   8  833
1477469356.277:  -2147  61   8  833
1477469356.277:  -2159  61   8  833
1477469356.279:  -2177  61   8  833
1477469356.279:  -2184  61   8  833
1477469356.280:  -2162  61   8  833
1477469356.280:  -2113  61   8  833
1477469356.281:  -2075  61   8  833
1477469356.283:  -2083  61   8  833
1477469356.308:  -2130  61   8  833
1477469356.308:  -2170  61   8  833
1477469356.312:  -2175  61   8  833
1477469356.313:  -2174  61   8  833
1477469356.314:  -2205  61   8  833
1477469356.315:  -2266  61   8  833
1477469356.315:  -2306  61   8  833
1477469356.316:  -2279  61   8  833
1477469356.316:  -2194  61   8  833
1477469356.318:  -2111  61   8  833
1477469356.328:  -2076  61   8  833
1477469356.329:  -2083  61   8  833
1477469356.329:  -2096  61   8  833
1477469356.329:  -2098  61   8  833
1477469356.329:  -2107  61   8  833
1477469356.329:  -2142  61   8  833
1477469356.329:  -2199  61   8  833
1477469356.329:  -2250  61   8  833
1477469356.329:  -2264  61   8  833
1477469356.330:  -2247  61   8  833
1477469356.330:  -2238  61   8  833
1477469356.330:  -2259  61   8  833
1477469356.330:  -2299  61   8  833
1477469356.330:  -2333  61   8  833
1477469356.330:  -2343  61   8  833
1477469356.330:  -2345  61   8  833
1477469356.330:  -2362  61   8  833
1477469356.331:  -2397  61   8  833
1477469356.331:  -2426  61   8  833
1477469356.334:  -2430  61   8  833
1477469356.335:  -2422  61   8  833
1477469356.336:  -2426  61   8  833
1477469356.337:  -2448  61   8  833
1477469356.338:  -2474  61   8  833
1477469356.342:  -2485  61   8  833
1477469356.347:  -2477  61   8  833
1477469356.348:  -2460  61   8  833
1477469356.348:  -2448  61   8  833
1477469356.350:  -2431  61   8  833
1477469356.351:  -2403  61   8  833
1477469356.352:  -2370  61   8  833
1477469356.355:  -2349  61   8  833
1477469356.358:  -2349  61   8  833
1477469356.361:  -2365  61   8  833
1477469356.373:  -2382  61   8  833
1477469356.374:  -2388  61   8  833
1477469356.375:  -2384  61   8  833
1477469356.375:  -2384  61   8  833
1477469356.376:  -2389  61   8  833
1477469356.376:  -2391  61   8  833
1477469356.376:  -2390  61   8  833
1477469356.377:  -2394  61   8  833
1477469356.379:  -2411  61   8  833
1477469356.380:  -2439  61   8  833
1477469356.381:  -2468  61   8  833
1477469356.382:  -2491  61   8  833
1477469356.394:  -2510  61   8  833
1477469356.394:  -2531  61   8  833
1477469356.395:  -2548  61   8  833
1477469356.395:  -2551  61   8  833
1477469356.396:  -2544  61   8  833
1477469356.397:  -2554  61   8  833
1477469356.397:  -2596  61   8  833
1477469356.399:  -2661  61   8  833
1477469356.405:  -2725  61   8  833
1477469356.406:  -2766  61   8  833
1477469356.409:  -2783  61   8  833
1477469356.410:  -2793  61   8  833
1477469356.410:  -2804  61   8  833
1477469356.410:  -2815  61   8  833
1477469356.413:  -2823  61   8  833
1477469356.416:  -2828  61   8  833
1477469356.417:  -2829  61   8  833
1477469356.418:  -2830  61   8  833
1477469356.420:  -2843  61   8  833
1477469356.421:  -2885  61   8  833
1477469356.424:  -2946  61   8  833
1477469356.426:  -3000  61   8  833
1477469356.443:  -3024  61   8  833
1477469356.444:  -3024  61   8  833
1477469356.444:  -3030  61   8  833
1477469356.445:  -3062  61   8  833
1477469356.445:  -3105  61   8  833
1477469356.445:  -3130  61   8  833
1477469356.446:  -3138  61   8  833
1477469356.447:  -3154  61   8  833
1477469356.447:  -3184  61   8  833
1477469356.448:  -3207  61   8  833
1477469356.449:  -3204  61   8  833
1477469356.449:  -3177  61   8  833
1477469356.451:  -3156  61   8  833
1477469356.453:  -3166  61   8  833
1477469356.455:  -3201  61   8  833
1477469356.457:  -3236  61   8  833
1477469356.458:  -3261  61   8  833
1477469356.463:  -3289  61   8  833
1477469356.480:  -3332  61   8  833
1477469356.481:  -3390  61   8  833
1477469356.481:  -3453  61   8  833
1477469356.482:  -3502  61   8  833
1477469356.483:  -3529  61   8  833
1477469356.484:  -3549  61   8  833
1477469356.484:  -3584  61   8  833
1477469356.485:  -3646  61   8  833
1477469356.485:  -3725  61   8  833
1477469356.485:  -3795  61   8  833
1477469356.485:  -3839  61   8  833
1477469356.485:  -3860  61   8  833
1477469356.486:  -3882  61   8  833
1477469356.491:  -3914  61   8  833
1477469356.532:  -3946  61   8  833
1477469356.532:  -3972  61   8  833
1477469356.532:  -4001  61   8  833
1477469356.533:  -4046  61   8  833
1477469356.533:  -4110  61   8  833
1477469356.533:  -4189  61   8  833
1477469356.534:  -4270  61   8  833
1477469356.534:  -4344  61   8  833
1477469356.534:  -4410  61   8  833
1477469356.534:  -4464  61   8  833
1477469356.535:  -4503  61   8  833
1477469356.535:  -4535  61   8  833
1477469356.536:  -4569  61   8  833
1477469356.536:  -4593  61   8  833
1477469356.537:  -4582  61   8  833
1477469356.537:  -4527  61   8  833
1477469356.537:  -4455  61   8  833
1477469356.538:  -4397  61   8  833
1477469356.538:  -4356  61   8  833
1477469356.538:  -4298  61   8  833
1477469356.538:  -4196  61   8  833
1477469356.539:  -4076  61   8  833
1477469356.539:  -4003  61   8  833
1477469356.539:  -4011  61   8  833
1477469356.539:  -4075  61   8  833
1477469356.540:  -4145  61   8  833
1477469356.541:  -4188  61   8  833
1477469356.546:  -4212  61   8  833
1477469356.555:  -4232  61   8  833
1477469356.555:  -4252  61   8  833
1477469356.555:  -4265  61   8  833
1477469356.556:  -4276  61   8  833
1477469356.556:  -4298  61   8  833
1477469356.557:  -4332  61   8  833
1477469356.559:  -4356  61   8  833
1477469356.559:  -4364  61   8  833
1477469356.564:  -4370  61   8  833
1477469356.564:  -4393  61   8  833
1477469356.566:  -4430  61   8  833
1477469356.567:  -4455  61   8  833
1477469356.573:  -4441  61   8  833
1477469356.574:  -4386  61   8  833
1477469356.584:  -4311  61   8  833
1477469356.584:  -4236  61   8  833
1477469356.585:  -4168  61   8  833
1477469356.585:  -4113  61   8  833
1477469356.586:  -4079  61   8  833
1477469356.587:  -4065  61   8  833
1477469356.587:  -4055  61   8  833
1477469356.587:  -4033  61   8  833
1477469356.589:  -3996  61   8  833
1477469356.591:  -3962  61   8  833
1477469356.601:  -3954  61   8  833
1477469356.601:  -3979  61   8  833
1477469356.601:  -4012  61   8  833
1477469356.602:  -4030  61   8  833
1477469356.602:  -4029  61   8  833
1477469356.605:  -4025  61   8  833
1477469356.605:  -4030  61   8  833
1477469356.606:  -4042  61   8  833
1477469356.607:  -4044  61   8  833
1477469356.614:  -4029  61   8  833
1477469356.614:  -4016  61   8  833
1477469356.615:  -4028  61   8  833
1477469356.616:  -4062  61   8  833
1477469356.623:  -4097  61   8  833
1477469356.623:  -4120  61   8  833
1477469356.623:  -4142  61   8  833
1477469356.624:  -4183  61   8  833
1477469356.627:  -4244  61   8  833
1477469356.630:  -4297  61   8  833
1477469356.630:  -4323  61   8  833
1477469356.632:  -4344  61   8  833
1477469356.634:  -4397  61   8  833
1477469356.635:  -4490  61   8  833
1477469356.642:  -4587  61   8  833
1477469356.651:  -4654  61   8  833
1477469356.652:  -4689  61   8  833
1477469356.652:  -4717  61   8  833
1477469356.653:  -4751  61   8  833
1477469356.653:  -4785  61   8  833
1477469356.653:  -4824  61   8  833
1477469356.654:  -4923  61   8  833
1477469356.655:  -5141  61   8  833
1477469356.656:  -5488  61   8  833
1477469356.657:  -5916  61   8  833
1477469356.660:  -6388  61   8  833
1477469356.664:  -6908  61   8  833
1477469356.665:  -7475  61   8  833
1477469356.666:  -8014  61   8  833
1477469356.689:  -8397  61   8  833
1477469356.689:  -8525  61   8  833
1477469356.689:  -8421  61   8  833
1477469356.689:  -8188  62   8  831
1477469356.690:  -7885  62   8  831
1477469356.690:  -7458  62   8  831
1477469356.690:  -6818  62   8  831
1477469356.690:  -5966  62   8  831
1477469356.690:  -5037  62   8  831
1477469356.690:  -4198  62   8  831
1477469356.690:  -3520  62   8  831
1477469356.691:  -2944  62   8  831
1477469356.692:  -2387  62   8  831
1477469356.694:  -1848  62   8  831
1477469356.695:  -1410  62   8  831
1477469356.696:  -1141  62   8  831
1477469356.701:  -1034  62   8  831
1477469356.701:  -1027  62   8  831
1477469356.702:  -1074  62   8  831
1477469356.704:  -1183  62   8  831
1477469356.710:  -1389  62   8  831
1477469356.710:  -1688  62   8  831
1477469356.712:  -2040  62   8  831
1477469356.713:  -2413  62   8  831
1477469356.714:  -2804  62   8  831
1477469356.716:  -3219  62   8  831
1477469356.731:  -3643  62   8  831
1477469356.731:  -4033  62   8  831
1477469356.732:  -4346  62   8  831
1477469356.732:  -4571  62   8  831
1477469356.732:  -4730  62   8  831
1477469356.732:  -4851  62   8  831
1477469356.733:  -4943  62   8  831
1477469356.734:  -5012  62   8  831
1477469356.736:  -5079  62   8  831
1477469356.737:  -5165  62   8  831
1477469356.738:  -5274  62   8  831
1477469356.739:  -5388  62   8  831
1477469356.741:  -5487  62   8  831
1477469356.744:  -5583  62   8  831
1477469356.766:  -5704  62   8  831
1477469356.766:  -5849  62   8  831
1477469356.766:  -5964  62   8  831
1477469356.766:  -5999  62   8  831
1477469356.767:  -5974  62   8  831
1477469356.767:  -5961  62   8  831
1477469356.768:  -6016  62   8  831
1477469356.768:  -6128  62   8  831
1477469356.768:  -6242  62   8  831
1477469356.769:  -6329  62   8  831
1477469356.769:  -6415  62   8  831
1477469356.769:  -6548  62   8  831
1477469356.769:  -6744  62   8  831
1477469356.771:  -6974  62   8  831
1477469356.774:  -7212  62   8  831
1477469356.782:  -7444  62   8  831
1477469356.783:  -7675  62   8  831
1477469356.783:  -7917  62   8  831
1477469356.784:  -8173  62   8  831
1477469356.785:  -8432  62   8  831
1477469356.786:  -8672  62   8  831
1477469356.788:  -8877  62   8  831
1477469356.792:  -9040  62   8  831
1477469356.792:  -9170  62   8  831
1477469356.805:  -9285  62   8  831
1477469356.805:  -9407  62   8  831
1477469356.805:  -9541  62   8  831
1477469356.806:  -9687  62   8  831
1477469356.806:  -9830  62   8  831
1477469356.807:  -9946  62   8  831
1477469356.808: -10014  62   8  831
1477469356.808: -10046  62   8  831
1477469356.811: -10063  62   8  831
1477469356.812: -10085  62   8  831
1477469356.812: -10117  62   8  831
1477469356.815: -10153  62   8  831
1477469356.825: -10182  62   8  831
1477469356.827: -10205  62   8  831
1477469356.827: -10230  62   8  831
1477469356.828: -10257  62   8  831
1477469356.829: -10281  62   8  831
1477469356.830: -10292  62   8  831
1477469356.831: -10277  62   8  831
1477469356.833: -10233  62   8  831
1477469356.837: -10175  62   8  831
1477469356.839: -10135  62   8  831
1477469356.839: -10128  62   8  831
1477469356.839: -10146  62   8  831
1477469356.840: -10161  62   8  831
1477469356.846: -10153  62   8  831
1477469356.846: -10126  62   8  831
1477469356.847: -10103  62   8  831
1477469356.848: -10096  62   8  831
1477469356.850: -10085  62   8  831
1477469356.851: -10048  62   8  831
1477469356.854:  -9983  62   8  831
1477469356.856:  -9915  62   8  831
1477469356.860:  -9873  62   8  831
1477469356.885:  -9867  62   8  831
1477469356.886:  -9866  62   8  831
1477469356.886:  -9834  62   8  831
1477469356.886:  -9772  62   8  831
1477469356.886:  -9710  62   8  831
1477469356.887:  -9669  62   8  831
1477469356.887:  -9642  62   8  831
1477469356.887:  -9604  62   8  831
1477469356.887:  -9548  62   8  831
1477469356.887:  -9493  62   8  831
1477469356.888:  -9468  62   8  831
1477469356.888:  -9474  62   8  831
1477469356.889:  -9478  62   8  831
1477469356.889:  -9452  62   8  831
1477469356.889:  -9394  62   8  831
1477469356.889:  -9319  62   8  831
1477469356.894:  -9241  62   8  831
1477469356.896:  -9160  62   8  831
1477469356.897:  -9078  62   8  831
1477469356.898:  -9000  62   8  831
1477469356.899:  -8939  62   8  831
1477469356.902:  -8895  62   8  831
1477469356.903:  -8849  62   8  831
1477469356.906:  -8792  62   8  831
1477469356.907:  -8729  62   8  831
1477469356.910:  -8668  62   8  831
1477469356.911:  -8609  62   8  831
1477469356.912:  -8543  62   8  831
1477469356.914:  -8467  62   8  831
1477469356.916:  -8383  62   8  831
1477469356.920:  -8298  62   8  831
1477469356.921:  -8214  62   8  831
1477469356.937:  -8130  62   8  831
1477469356.937:  -8045  62   8  831
1477469356.938:  -7957  62   8  831
1477469356.939:  -7854  62   8  831
1477469356.939:  -7717  62   8  831
1477469356.940:  -7556  62   8  831
1477469356.940:  -7414  62   8  831
1477469356.940:  -7322  62   8  831
1477469356.941:  -7261  62   8  831
1477469356.942:  -7179  62   8  831
1477469356.943:  -7050  62   8  831
1477469356.944:  -6910  62   8  831
1477469356.949:  -6821  62   8  831
1477469356.950:  -6787  62   8  831
1477469356.959:  -6745  62   8  831
1477469356.960:  -6640  62   8  831
1477469356.960:  -6489  62   8  831
1477469356.961:  -6355  62   8  831
1477469356.961:  -6272  62   8  831
1477469356.962:  -6214  62   8  831
1477469356.962:  -6133  62   8  831
1477469356.963:  -6014  62   8  831
1477469356.965:  -5885  62   8  831
1477469356.968:  -5768  62   8  831
1477469356.970:  -5650  62   8  831
1477469356.971:  -5518  62   8  831
1477469356.974:  -5389  62   8  831
1477469356.974:  -5298  62   8  831
1477469356.984:  -5251  62   8  831
1477469356.984:  -5220  62   8  831
1477469356.985:  -5166  62   8  831
1477469356.985:  -5078  62   8  831
1477469356.985:  -4986  62   8  831
1477469356.989:  -4921  62   8  831
1477469356.990:  -4883  62   8  831
1477469357.072:  -4853  62   8  831
1477469357.078:  -4819  62   8  831
1477469357.078:  -4785  62   8  831
1477469357.078:  -4759  62   8  831
1477469357.078:  -4747  62   8  831
1477469357.078:  -4740  62   8  831
1477469357.078:  -4726  62   8  831
1477469357.079:  -4696  62   8  831
1477469357.079:  -4653  62   8  831
1477469357.079:  -4601  62   8  831
1477469357.079:  -4548  62   8  831
1477469357.079:  -4506  62   8  831
1477469357.079:  -4477  62   8  831
1477469357.080:  -4455  62   8  831
1477469357.080:  -4440  62   8  831
1477469357.080:  -4443  62   8  831
1477469357.080:  -4464  62   8  831
1477469357.080:  -4480  62   8  831
1477469357.080:  -4464  62   8  831
1477469357.080:  -4403  62   8  831
1477469357.081:  -4326  62   8  831
1477469357.081:  -4274  62   8  831
1477469357.081:  -4262  62   8  831
1477469357.081:  -4261  62   8  831
1477469357.081:  -4244  62   8  831
1477469357.081:  -4210  62   8  831
1477469357.081:  -4173  62   8  831
1477469357.081:  -4137  62   8  831
1477469357.082:  -4086  62   8  831
1477469357.082:  -4016  62   8  831
1477469357.082:  -3943  62   8  831
1477469357.083:  -3892  62   8  831
1477469357.083:  -3865  62   8  831
1477469357.083:  -3833  62   8  831
1477469357.083:  -3781  62   8  831
1477469357.083:  -3724  62   8  831
1477469357.083:  -3687  62   8  831
1477469357.083:  -3676  62   8  831
1477469357.084:  -3668  62   8  831
1477469357.084:  -3636  62   8  831
1477469357.084:  -3572  62   8  831
1477469357.086:  -3497  62   8  831
1477469357.086:  -3449  62   8  831
1477469357.087:  -3439  62   8  831
1477469357.087:  -3447  62   8  831
1477469357.087:  -3436  62   8  831
1477469357.087:  -3393  62   8  831
1477469357.088:  -3340  62   8  831
1477469357.088:  -3314  62   8  831
1477469357.088:  -3320  62   8  831
1477469357.089:  -3321  62   8  831
1477469357.094:  -3283  62   8  831
1477469357.095:  -3224  62   8  831
1477469357.098:  -3195  62   8  831
1477469357.098:  -3218  62   8  831
1477469357.099:  -3273  62   8  831
1477469357.103:  -3310  62   8  831
1477469357.103:  -3309  62   8  831
1477469357.109:  -3290  62   8  831
1477469357.109:  -3281  62   8  831
1477469357.111:  -3281  62   8  831
1477469357.128:  -3269  62   8  831
1477469357.129:  -3240  62   8  831
1477469357.129:  -3213  62   8  831
1477469357.129:  -3202  62   8  831
1477469357.129:  -3208  62   8  831
1477469357.129:  -3217  62   8  831
1477469357.129:  -3220  62   8  831
1477469357.130:  -3220  62   8  831
1477469357.130:  -3227  62   8  831
1477469357.131:  -3235  62   8  831
1477469357.131:  -3233  62   8  831
1477469357.133:  -3219  62   8  831
1477469357.135:  -3202  62   8  831
1477469357.139:  -3194  62   8  831
1477469357.139:  -3202  62   8  831
1477469357.141:  -3221  62   8  831
1477469357.151:  -3232  62   8  831
1477469357.151:  -3214  62   8  831
1477469357.151:  -3165  62   8  831
1477469357.151:  -3095  62   8  831
1477469357.153:  -3027  62   8  831
1477469357.153:  -2982  62   8  831
1477469357.155:  -2964  62   8  831
1477469357.155:  -2954  62   8  831
1477469357.157:  -2938  62   8  831
1477469357.162:  -2920  62   8  831
1477469357.163:  -2915  62   8  831
1477469357.168:  -2924  62   8  831
1477469357.182:  -2935  62   8  831
1477469357.182:  -2930  62   8  831
1477469357.183:  -2901  62   8  831
1477469357.183:  -2870  62   8  831
1477469357.184:  -2863  62   8  831
1477469357.185:  -2887  62   8  831
1477469357.185:  -2931  62   8  831
1477469357.186:  -2982  62   8  831
1477469357.186:  -3032  62   8  831
1477469357.188:  -3074  62   8  831
1477469357.189:  -3102  62   8  831
1477469357.190:  -3103  62   8  831
1477469357.190:  -3071  62   8  831
1477469357.199:  -3017  62   8  831
1477469357.203:  -2967  62   8  831
1477469357.204:  -2938  62   8  831
1477469357.205:  -2928  62   8  831
1477469357.206:  -2924  62   8  831
1477469357.206:  -2912  62   8  831
1477469357.247:  -2890  62   8  831
1477469357.248:  -2866  62   8  831
1477469357.248:  -2849  62   8  831
1477469357.249:  -2833  62   8  831
1477469357.249:  -2812  62   8  831
1477469357.251:  -2791  62   8  831
1477469357.252:  -2776  62   8  831
1477469357.263:  -2766  62   8  831
1477469357.264:  -2761  62   8  831
1477469357.264:  -2761  62   8  831
1477469357.264:  -2765  62   8  831
1477469357.264:  -2772  62   8  831
1477469357.264:  -2773  62   8  831
1477469357.265:  -2756  62   8  831
1477469357.265:  -2725  62   8  831
1477469357.265:  -2697  62   8  831
1477469357.265:  -2695  62   8  831
1477469357.266:  -2717  62   8  831
1477469357.266:  -2745  62   8  831
1477469357.266:  -2760  62   8  831
1477469357.266:  -2755  62   8  831
1477469357.268:  -2730  62   8  831
1477469357.268:  -2694  62   8  831
1477469357.268:  -2652  62   8  831
1477469357.269:  -2602  62   8  831
1477469357.269:  -2542  62   8  831
1477469357.269:  -2482  62   8  831
1477469357.269:  -2431  62   8  831
1477469357.270:  -2399  62   8  831
1477469357.270:  -2382  62   8  831
1477469357.270:  -2365  62   8  831
1477469357.270:  -2341  62   8  831
1477469357.271:  -2322  62   8  831
1477469357.271:  -2317  62   8  831
1477469357.271:  -2313  62   8  831
1477469357.272:  -2290  62   8  831
1477469357.274:  -2261  62   8  831
1477469357.276:  -2260  62   8  831
1477469357.278:  -2314  62   8  831
1477469357.282:  -2401  62   8  831
1477469357.287:  -2467  62   8  831
1477469357.288:  -2489  62   8  831
1477469357.288:  -2492  62   8  831
1477469357.289:  -2509  62   8  831
1477469357.290:  -2526  62   8  831
1477469357.291:  -2507  62   8  831
1477469357.296:  -2449  62   8  831
1477469357.296:  -2390  62   8  831
1477469357.299:  -2369  62   8  831
1477469357.314:  -2378  62   8  831
1477469357.315:  -2380  62   8  831
1477469357.315:  -2359  62   8  831
1477469357.315:  -2340  62   8  831
1477469357.315:  -2351  62   8  831
1477469357.315:  -2382  62   8  831
1477469357.315:  -2405  62   8  831
1477469357.315:  -2412  62   8  831
1477469357.316:  -2422  62   8  831
1477469357.317:  -2449  62   8  831
1477469357.319:  -2495  62   8  831
1477469357.323:  -2539  62   8  831
1477469357.323:  -2565  62   8  831
1477469357.324:  -2576  62   8  831
1477469357.325:  -2579  62   8  831
1477469357.328:  -2582  62   8  831
1477469357.331:  -2588  62   8  831
1477469357.332:  -2601  62   8  831
1477469357.337:  -2621  62   8  831
1477469357.337:  -2640  62   8  831
1477469357.356:  -2659  62   8  831
1477469357.356:  -2676  62   8  831
1477469357.357:  -2691  62   8  831
1477469357.357:  -2698  62   8  831
1477469357.357:  -2699  62   8  831
1477469357.357:  -2689  62   8  831
1477469357.357:  -2668  62   8  831
1477469357.358:  -2645  62   8  831
1477469357.358:  -2644  62   8  831
1477469357.359:  -2678  62   8  831
1477469357.359:  -2745  62   8  831
1477469357.360:  -2821  62   8  831
1477469357.363:  -2874  62   8  831
1477469357.363:  -2895  62   8  831
1477469357.368:  -2902  62   8  831
1477469357.368:  -2914  62   8  831
1477469357.379:  -2935  62   8  831
1477469357.380:  -2958  62   8  831
1477469357.380:  -2976  62   8  831
1477469357.380:  -2986  62   8  831
1477469357.380:  -2993  62   8  831
1477469357.380:  -3010  62   8  831
1477469357.381:  -3043  62   8  831
1477469357.386:  -3086  62   8  831
1477469357.386:  -3122  62   8  831
1477469357.387:  -3131  62   8  831
1477469357.392:  -3113  62   8  831
1477469357.392:  -3093  62   8  831
1477469357.395:  -3099  62   8  831
1477469357.395:  -3129  62   8  831
1477469357.397:  -3160  62   8  831
1477469357.400:  -3180  62   8  831
1477469357.401:  -3188  62   8  831
1477469357.406:  -3184  62   8  831
1477469357.406:  -3156  62   8  831
1477469357.408:  -3089  62   8  831
1477469357.410:  -2985  62   8  831
1477469357.411:  -2868  62   8  831
1477469357.412:  -2759  62   8  831
1477469357.415:  -2655  62   8  831
1477469357.420:  -2538  62   8  831
1477469357.420:  -2409  62   8  831
1477469357.422:  -2287  62   8  831
1477469357.423:  -2193  62   8  831
1477469357.425:  -2129  62   8  831
1477469357.426:  -2082  62   8  831
1477469357.440:  -2036  62   8  831
1477469357.440:  -1990  62   8  831
1477469357.440:  -1959  62   8  831
1477469357.441:  -1955  62   8  831
1477469357.441:  -1971  62   8  831
1477469357.441:  -1993  62   8  831
1477469357.441:  -2006  62   8  831
1477469357.442:  -2002  62   8  831
1477469357.445:  -1982  62   8  831
1477469357.445:  -1947  62   8  831
1477469357.450:  -1892  62   8  831
1477469357.450:  -1821  62   8  831
1477469357.452:  -1752  62   8  831
1477469357.453:  -1704  62   8  831
1477469357.463:  -1678  62   8  831
1477469357.463:  -1655  62   8  831
1477469357.463:  -1619  62   8  831
1477469357.464:  -1567  62   8  831
1477469357.465:  -1511  62   8  831
1477469357.467:  -1462  62   8  831
1477469357.467:  -1410  62   8  831
1477469357.470:  -1343  62   8  831
1477469357.472:  -1269  62   8  831
1477469357.474:  -1207  62   8  831
1477469357.480:  -1166  62   8  831
1477469357.481:  -1137  62   8  831
1477469357.484:  -1112  62   8  831
1477469357.486:  -1090  62   8  831
1477469357.487:  -1077  62   8  831
1477469357.494:  -1070  62   8  831
1477469357.495:  -1053  62   8  831
1477469357.500:  -1011  62   8  831
1477469357.500:   -957  62   8  831
1477469357.501:   -924  62   8  831
1477469357.501:   -927  62   8  831
1477469357.502:   -946  62   8  831
1477469357.502:   -954  62   8  831
1477469357.502:   -940  62   8  831
1477469357.506:   -919  62   8  831
1477469357.507:   -916  62   8  831
1477469357.522:   -930  62   8  831
1477469357.523:   -937  62   8  831
1477469357.523:   -920  62   8  831
1477469357.523:   -893  62   8  831
1477469357.523:   -885  62   8  831
1477469357.523:   -912  62   8  831
1477469357.523:   -962  62   8  831
1477469357.523:  -1014  62   8  831
1477469357.524:  -1055  62   8  831
1477469357.530:  -1096  62   8  831
1477469357.531:  -1145  62   8  831
1477469357.531:  -1189  62   8  831
1477469357.533:  -1209  62   8  831
1477469357.533:  -1206  62   8  831
1477469357.543:  -1202  62   8  831
1477469357.544:  -1215  62   8  831
1477469357.544:  -1251  62   8  831
1477469357.544:  -1302  62   8  831
1477469357.544:  -1380  62   8  831
1477469357.545:  -1520  62   8  831
1477469357.546:  -1759  62   8  831
1477469357.553:  -2095  62   8  831
1477469357.554:  -2505  62   8  831
1477469357.556:  -2975  62   8  831
1477469357.557:  -3492  62   8  831
1477469357.560:  -4015  62   8  831
1477469357.561:  -4460  62   8  831
1477469357.561:  -4731  62   8  831
1477469357.563:  -4793  62   8  831
1477469357.565:  -4677  62   8  831
1477469357.569:  -4422  62   8  831
1477469357.569:  -4002  62   8  831
1477469357.571:  -3357  62   8  831
1477469357.572:  -2489  62   8  831
1477469357.573:  -1514  62   8  831
1477469357.576:   -586  62   8  831
1477469357.591:    207  62   8  831
1477469357.592:    889  62   8  831
1477469357.592:   1527  62   8  831
1477469357.592:   2135  62   8  831
1477469357.592:   2656  62   8  831
1477469357.592:   3038  62   8  831
1477469357.592:   3277  62   8  831
1477469357.593:   3402  62   8  874
1477469357.596:   3429  62   8  874
1477469357.597:   3356  62   8  874
1477469357.598:   3172  62   8  874
1477469357.602:   2892  62   8  874
1477469357.613:   2552  62   8  874
1477469357.613:   2186  62   8  874
1477469357.613:   1807  62   8  874
1477469357.614:   1425  62   8  874
1477469357.614:   1061  62   8  874
1477469357.614:    745  62   8  874
1477469357.614:    501  62   8  874
1477469357.615:    338  62   8  874
1477469357.617:    237  62   8  874
1477469357.620:    164  62   8  874
1477469357.625:    100  62   8  874
1477469357.625:     46  62   8  874
1477469357.626:     14  62   8  874
1477469357.627:      2  62   8  874
1477469357.628:      5  62   8  874
1477469357.634:      5  62   8  874
1477469357.639:    -10  62   8  874
1477469357.640:    -47  62   8  874
1477469357.641:   -101  62   8  874
1477469357.642:   -168  62   8  874
1477469357.643:   -228  62   8  874
1477469357.643:   -261  62   8  874
1477469357.645:   -265  62   8  874
1477469357.647:   -255  62   8  874
1477469357.668:   -245  62   8  874
1477469357.669:   -236  62   8  874
1477469357.669:   -226  62   8  874
1477469357.669:   -219  62   8  874
1477469357.669:   -221  62   8  874
1477469357.669:   -241  62   8  874
1477469357.669:   -269  62   8  874
1477469357.670:   -286  62   8  874
1477469357.670:   -278  62   8  874
1477469357.670:   -258  62   8  874
1477469357.670:   -242  62   8  874
1477469357.673:   -241  62   8  874
1477469357.673:   -253  62   8  874
1477469357.675:   -269  62   8  874
1477469357.680:   -283  62   8  874
1477469357.680:   -304  62   8  874
1477469357.681:   -338  62   8  874
1477469357.683:   -375  62   8  874
1477469357.691:   -398  62   8  874
1477469357.691:   -401  62   8  874
1477469357.692:   -386  62   8  874
1477469357.693:   -366  62   8  874
1477469357.693:   -352  62   8  874
1477469357.695:   -351  62   8  874
1477469357.700:   -360  62   8  874
1477469357.701:   -371  62   8  874
1477469357.703:   -376  62   8  874
1477469357.706:   -371  62   8  874
1477469357.709:   -358  62   8  874
1477469357.709:   -344  62   8  874
1477469357.715:   -329  62   8  874
1477469357.718:   -301  62   8  874
1477469357.732:   -258  62   8  874
1477469357.733:   -214  62   8  874
1477469357.733:   -185  62   8  874
1477469357.734:   -182  62   8  874
1477469357.735:   -198  62   8  874
1477469357.735:   -218  62   8  874
1477469357.735:   -233  62   8  874
1477469357.735:   -250  62   8  874
1477469357.736:   -266  62   8  874
1477469357.736:   -265  62   8  874
1477469357.736:   -239  62   8  874
1477469357.737:   -204  62   8  874
1477469357.737:   -189  62   8  874
1477469357.739:   -203  62   8  874
1477469357.739:   -220  62   8  874
1477469357.741:   -206  62   8  874
1477469357.770:   -161  62   8  874
1477469357.771:   -124  62   8  874
1477469357.771:   -132  62   8  874
1477469357.773:   -176  62   8  874
1477469357.774:   -225  62   8  874
1477469357.775:   -281  62   8  874
1477469357.776:   -375  62   8  874
1477469357.777:   -524  62   8  874
1477469357.793:   -694  62   8  874
1477469357.793:   -827  62   8  874
1477469357.794:   -896  62   8  874
1477469357.794:   -930  62   8  874
1477469357.794:   -961  62   8  874
1477469357.794:   -970  62   8  874
1477469357.794:   -922  62   8  874
1477469357.794:   -823  62   8  874
1477469357.795:   -730  62   8  874
1477469357.795:   -687  62   8  874
1477469357.795:   -687  62   8  874
1477469357.795:   -689  62   8  874
1477469357.796:   -674  62   8  874
1477469357.796:   -658  62   8  874
1477469357.796:   -661  62   8  874
1477469357.796:   -666  62   8  874
1477469357.796:   -650  62   8  874
1477469357.797:   -626  62   8  874
1477469357.797:   -631  62   8  874
1477469357.797:   -672  62   8  874
1477469357.797:   -719  62   8  874
1477469357.800:   -738  62   8  874
1477469357.804:   -733  62   8  874
1477469357.804:   -730  62   8  874
1477469357.809:   -743  62   8  874
1477469357.809:   -748  62   8  874
1477469357.812:   -717  62   8  874
1477469357.813:   -653  62   8  874
1477469357.814:   -591  62   8  874
1477469357.816:   -555  62   8  874
1477469357.819:   -536  62   8  874
1477469357.822:   -518  62   8  874
1477469357.832:   -493  62   8  874
1477469357.832:   -468  62   8  874
1477469357.833:   -455  62   8  874
1477469357.835:   -448  62   8  874
1477469357.836:   -428  62   8  874
1477469357.836:   -388  62   8  874
1477469357.836:   -343  62   8  874
1477469357.836:   -311  62   8  874
1477469357.837:   -293  62   8  874
1477469357.838:   -277  62   8  874
1477469357.841:   -242  62   8  874
1477469357.843:   -186  62   8  874
1477469357.845:   -129  62   8  874
1477469357.852:    -91  62   8  874
1477469357.853:    -69  62   8  874
1477469357.853:    -43  62   8  874
1477469357.853:     -7  62   8  874
1477469357.855:     29  62   8  874
1477469357.857:     50  62   8  874
1477469357.863:     53  62   8  874
1477469357.873:     50  62   8  874
1477469357.873:     55  62   8  874
1477469357.873:     74  62   8  874
1477469357.874:     99  62   8  874
1477469357.874:    132  62   8  874
1477469357.874:    168  62   8  874
1477469357.877:    196  62   8  874
1477469357.877:    204  62   8  874
1477469357.878:    190  62   8  874
1477469357.879:    163  62   8  874
1477469357.881:    135  62   8  874
1477469357.882:    111  62   8  874
1477469357.883:     89  62   8  874
1477469357.889:     69  62   8  874
1477469357.896:     61  62   8  874
1477469357.964:     67  62   8  874
1477469357.967:     76  62   8  874
1477469357.968:     65  62   8  874
1477469357.968:     28  62   8  874
1477469357.968:    -23  62   8  874
1477469357.968:    -67  62   8  874
1477469357.968:    -94  62   8  874
1477469357.968:   -114  62   8  874
1477469357.969:   -144  62   8  874
1477469357.969:   -176  62   8  874
1477469357.969:   -184  62   8  874
1477469357.969:   -164  62   8  874
1477469357.969:   -136  62   8  874
1477469357.969:   -123  62   8  874
1477469357.969:   -131  62   8  874
1477469357.969:   -142  62   8  874
1477469357.970:   -139  62   8  874
1477469357.970:   -123  62   8  874
1477469357.970:   -108  62   8  874
1477469357.970:    -93  62   8  874
1477469357.970:    -65  62   8  874
1477469357.970:    -24  62   8  874
1477469357.971:      7  62   8  874
1477469357.971:     13  62   8  874
1477469357.971:     -2  62   8  874
1477469357.971:    -12  62   8  874
1477469357.971:     -1  62   8  874
1477469357.972:     23  62   8  874
1477469357.972:     35  62   8  874
1477469357.972:     30  62   8  874
1477469357.972:     29  62   8  874
1477469357.972:     48  62   8  874
1477469357.972:     77  62   8  874
1477469357.972:     95  62   8  874
1477469357.973:     92  62   8  874
1477469357.973:     73  62   8  874
1477469357.973:     50  62   8  874
1477469357.973:     36  62   8  874
1477469357.973:     31  62   8  874
1477469357.973:     42  62   8  874
1477469357.974:     71  62   8  874
1477469357.974:     99  62   8  874
1477469357.975:     93  62   8  874
1477469357.975:     45  62   8  874
1477469357.975:    -11  62   8  874
1477469357.982:    -40  62   8  874
1477469357.983:    -42  62   8  874
1477469357.986:    -55  62   8  874
1477469357.986:   -107  62   8  874
1477469357.988:   -178  62   8  874
1477469357.991:   -217  62   8  874
1477469357.991:   -207  62   8  874
1477469357.992:   -185  62   8  874
1477469357.997:   -200  62   8  874
1477469358.000:   -255  62   8  874
1477469358.013:   -320  62   8  874
1477469358.013:   -372  62   8  874
1477469358.014:   -409  62   8  874
1477469358.014:   -442  62   8  874
1477469358.014:   -475  62   8  874
1477469358.015:   -492  62   8  874
1477469358.015:   -493  62   8  874
1477469358.015:   -496  62   8  874
1477469358.015:   -520  62   8  874
1477469358.015:   -557  62   8  874
1477469358.017:   -590  62   8  874
1477469358.019:   -609  62   8  874
1477469358.022:   -622  62   8  874
1477469358.026:   -640  62   8  874
1477469358.036:   -667  62   8  874
1477469358.036:   -687  62   8  874
1477469358.036:   -683  62   8  874
1477469358.037:   -660  62   8  874
1477469358.038:   -641  62   8  874
1477469358.038:   -647  62   8  874
1477469358.040:   -678  62   8  874
1477469358.040:   -717  62   8  874
1477469358.042:   -745  62   8  874
1477469358.044:   -755  62   8  874
1477469358.054:   -756  62   8  874
1477469358.054:   -752  62   8  874
1477469358.054:   -735  62   8  874
1477469358.054:   -705  62   8  874
1477469358.055:   -676  62   8  874
1477469358.057:   -657  62   8  874
1477469358.057:   -645  62   8  874
1477469358.059:   -632  62   8  874
1477469358.061:   -615  62   8  874
1477469358.063:   -597  62   8  874
1477469358.072:   -585  62   8  874
1477469358.073:   -573  62   8  874
1477469358.073:   -548  62   8  874
1477469358.073:   -513  62   8  874
1477469358.073:   -488  62   8  874
1477469358.075:   -487  62   8  874
1477469358.077:   -504  62   8  874
1477469358.078:   -524  62   8  874
1477469358.081:   -537  62   8  874
1477469358.082:   -543  62   8  874
1477469358.087:   -551  62   8  874
1477469358.087:   -561  62   8  874
1477469358.088:   -559  62   8  874
1477469358.091:   -543  62   8  874
1477469358.098:   -528  62   8  874
1477469358.099:   -531  62   8  874
1477469358.121:   -558  62   8  874
1477469358.121:   -597  62   8  874
1477469358.121:   -630  62   8  874
1477469358.122:   -645  62   8  874
1477469358.122:   -652  62   8  874
1477469358.122:   -662  62   8  874
1477469358.122:   -674  62   8  874
1477469358.122:   -677  62   8  874
1477469358.122:   -673  62   8  874
1477469358.123:   -680  62   8  874
1477469358.123:   -707  62   8  874
1477469358.123:   -749  62   8  874
1477469358.124:   -789  62   8  874
1477469358.124:   -811  62   8  874
1477469358.124:   -820  62   8  874
1477469358.126:   -828  62   8  874
1477469358.127:   -831  62   8  874
1477469358.130:   -822  62   8  874
1477469358.132:   -802  62   8  874
1477469358.133:   -791  62   8  874
1477469358.136:   -799  62   8  874
1477469358.137:   -823  62   8  874
1477469358.142:   -851  62   8  874
1477469358.142:   -877  62   8  874
1477469358.143:   -901  62   8  874
1477469358.146:   -920  62   8  874
1477469358.147:   -922  62   8  874
1477469358.151:   -902  62   8  874
1477469358.153:   -877  62   8  874
1477469358.157:   -876  62   8  874
1477469358.169:   -905  62   8  874
1477469358.169:   -941  62   8  874
1477469358.169:   -961  62   8  874
1477469358.170:   -967  62   8  874
1477469358.170:   -974  62   8  874
1477469358.170:   -995  62   8  874
1477469358.170:  -1017  62   8  874
1477469358.170:  -1015  62   8  874
1477469358.171:   -990  62   8  874
1477469358.174:   -970  62   8  874
1477469358.189:   -979  62   8  874
1477469358.190:  -1012  62   8  874
1477469358.190:  -1049  62   8  874
1477469358.191:  -1070  62   8  874
1477469358.191:  -1076  62   8  874
1477469358.191:  -1078  62   8  874
1477469358.191:  -1084  62   8  874
1477469358.192:  -1082  62   8  874
1477469358.192:  -1065  62   8  874
1477469358.192:  -1046  62   8  874
1477469358.197:  -1042  62   8  874
1477469358.197:  -1060  62   8  874
1477469358.198:  -1091  62   8  874
1477469358.200:  -1117  62   8  874
1477469358.204:  -1130  62   8  874
1477469358.204:  -1136  62   8  874
1477469358.207:  -1144  62   8  874
1477469358.210:  -1150  62   8  874
1477469358.210:  -1144  62   8  874
1477469358.212:  -1130  62   8  874
1477469358.213:  -1128  62   8  874
1477469358.216:  -1147  62   8  874
1477469358.219:  -1184  62   8  874
1477469358.220:  -1221  62   8  874
1477469358.243:  -1244  62   8  874
1477469358.243:  -1255  62   8  874
1477469358.243:  -1265  62   8  874
1477469358.243:  -1274  62   8  874
1477469358.243:  -1274  62   8  874
1477469358.244:  -1266  62   8  874
1477469358.244:  -1265  62   8  874
1477469358.244:  -1283  62   8  874
1477469358.244:  -1320  62   8  874
1477469358.273:  -1366  62   8  874
1477469358.273:  -1404  62   8  874
1477469358.273:  -1430  62   8  874
1477469358.274:  -1452  62   8  874
1477469358.274:  -1475  62   8  874
1477469358.275:  -1495  62   8  874
1477469358.275:  -1511  62   8  874
1477469358.275:  -1527  62   8  874
1477469358.275:  -1547  62   8  874
1477469358.276:  -1571  62   8  874
1477469358.280:  -1602  62   8  874
1477469358.280:  -1635  62   8  874
1477469358.281:  -1664  62   8  874
1477469358.282:  -1678  62   8  874
1477469358.283:  -1676  62   8  874
1477469358.285:  -1667  62   8  874
1477469358.287:  -1670  62   8  874
1477469358.287:  -1692  62   8  874
1477469358.290:  -1718  62   8  874
1477469358.290:  -1735  62   8  874
1477469358.290:  -1760  62   8  874
1477469358.290:  -1817  62   8  874
1477469358.291:  -1899  62   8  874
1477469358.291:  -1969  62   8  874
1477469358.291:  -1989  62   8  874
1477469358.292:  -1973  62   8  874
1477469358.293:  -1976  62   8  874
1477469358.293:  -2026  62   8  874
1477469358.297:  -2093  62   8  874
1477469358.297:  -2121  62   8  874
1477469358.298:  -2102  62   8  874
1477469358.300:  -2083  62   8  874
1477469358.308:  -2098  62   8  874
1477469358.326:  -2136  62   8  874
1477469358.326:  -2155  62   8  874
1477469358.327:  -2138  62   8  874
1477469358.328:  -2113  62   8  874
1477469358.329:  -2122  62   8  874
1477469358.330:  -2178  62   8  874
1477469358.330:  -2259  62   8  874
1477469358.331:  -2345  62   8  874
1477469358.332:  -2417  62   8  874
1477469358.334:  -2456  62   8  874
1477469358.344:  -2453  62   8  874
1477469358.345:  -2413  62   8  874
1477469358.345:  -2353  62   8  874
1477469358.345:  -2284  62   8  874
1477469358.346:  -2208  62   8  874
1477469358.346:  -2121  62   8  874
1477469358.347:  -2029  62   8  874
1477469358.347:  -1950  62   8  874
1477469358.347:  -1903  62   8  874
1477469358.348:  -1887  62   8  874
1477469358.349:  -1893  62   8  874
1477469358.350:  -1908  62   8  874
1477469358.350:  -1921  62   8  874
1477469358.352:  -1930  62   8  874
1477469358.352:  -1947  62   8  874
1477469358.357:  -1990  62   8  874
1477469358.359:  -2053  62   8  874
1477469358.360:  -2120  62   8  874
1477469358.360:  -2174  62   8  874
1477469358.360:  -2210  62   8  874
1477469358.365:  -2231  62   8  874
1477469358.366:  -2240  62   8  874
1477469358.367:  -2230  62   8  874
1477469358.371:  -2198  62   8  874
1477469358.372:  -2165  62   8  874
1477469358.373:  -2159  62   8  874
1477469358.374:  -2182  62   8  874
1477469358.379:  -2214  62   8  874
1477469358.379:  -2235  62   8  874
1477469358.381:  -2238  62   8  874
1477469358.383:  -2227  62   8  874
1477469358.388:  -2204  62   8  874
1477469358.388:  -2167  62   8  874
1477469358.390:  -2110  62   8  874
1477469358.401:  -2045  62   8  874
1477469358.401:  -1987  62   8  874
1477469358.401:  -1945  62   8  874
1477469358.401:  -1918  62   8  874
1477469358.401:  -1909  62   8  874
1477469358.401:  -1922  62   8  874
1477469358.403:  -1959  62   8  874
1477469358.405:  -2008  62   8  874
1477469358.405:  -2055  62   8  874
1477469358.412:  -2083  62   8  874
1477469358.412:  -2092  62   8  874
1477469358.415:  -2098  62   8  874
1477469358.415:  -2117  62   8  874
1477469358.417:  -2149  62   8  874
1477469358.419:  -2185  62   8  874
1477469358.420:  -2211  62   8  874
1477469358.422:  -2219  62   8  874
1477469358.424:  -2212  62   8  874
1477469358.446:  -2201  62   8  874
1477469358.446:  -2185  62   8  874
1477469358.447:  -2166  62   8  874
1477469358.447:  -2160  62   8  874
1477469358.448:  -2183  62   8  874
1477469358.448:  -2227  62   8  874
1477469358.448:  -2276  62   8  874
1477469358.448:  -2316  62   8  874
1477469358.448:  -2357  62   8  874
1477469358.449:  -2419  62   8  874
1477469358.449:  -2498  62   8  874
1477469358.449:  -2557  62   8  874
1477469358.449:  -2571  62   8  874
1477469358.452:  -2551  62   8  874
1477469358.456:  -2546  62   8  874
1477469358.456:  -2585  62   8  874
1477469358.458:  -2675  62   8  874
1477469358.461:  -2813  62   8  874
1477469358.461:  -3009  62   8  874
1477469358.463:  -3293  62   8  874
1477469358.466:  -3688  62   8  874
1477469358.470:  -4173  62   8  874
1477469358.478:  -4698  62   8  874
1477469358.478:  -5215  62   8  874
1477469358.479:  -5679  62   8  874
1477469358.479:  -6049  62   8  874
1477469358.479:  -6292  62   8  874
1477469358.481:  -6388  62   8  874
1477469358.485:  -6318  62   8  874
1477469358.485:  -6049  65   8  916
1477469358.485:  -5549  65   8  916
1477469358.489:  -4812  65   8  916
1477469358.489:  -3899  65   8  916
1477469358.491:  -2924  65   8  916
1477469358.493:  -1999  65   8  916
1477469358.497:  -1159  65   8  916
1477469358.507:   -373  65   8  916
1477469358.525:    383  65   8  916
1477469358.536:   1068  65   8  916
1477469358.536:   1602  65   8  916
1477469358.536:   1930  65   8  916
1477469358.536:   2077  65   8  916
1477469358.536:   2106  65   8  916
1477469358.537:   2056  65   8  916
1477469358.537:   1904  65   8  916
1477469358.537:   1619  65   8  916
1477469358.537:   1218  65   8  916
1477469358.537:    756  65   8  916
1477469358.537:    293  65   8  916
1477469358.537:   -137  65   8  916
1477469358.538:   -524  65   8  916
1477469358.538:   -860  65   8  916
1477469358.538:  -1125  65   8  916
1477469358.538:  -1312  65   8  916
1477469358.539:  -1435  65   8  916
1477469358.539:  -1525  65   8  916
1477469358.539:  -1601  65   8  916
1477469358.539:  -1681  65   8  916
1477469358.539:  -1767  65   8  916
1477469358.542:  -1850  65   8  916
1477469358.544:  -1914  65   8  916
1477469358.546:  -1951  65   8  916
1477469358.547:  -1965  65   8  916
1477469358.552:  -1977  65   8  916
1477469358.563:  -2013  65   8  916
1477469358.563:  -2079  65   8  916
1477469358.563:  -2157  65   8  916
1477469358.563:  -2220  65   8  916
1477469358.564:  -2256  65   8  916
1477469358.564:  -2271  65   8  916
1477469358.567:  -2280  65   8  916
1477469358.567:  -2290  65   8  916
1477469358.568:  -2297  65   8  916
1477469358.569:  -2295  65   8  916
1477469358.571:  -2290  65   8  916
1477469358.577:  -2290  65   8  916
1477469358.581:  -2298  65   8  916
1477469358.581:  -2310  65   8  916
1477469358.583:  -2325  65   8  916
1477469358.584:  -2343  65   8  916
1477469358.586:  -2360  65   8  916
1477469358.588:  -2371  65   8  916
1477469358.606:  -2374  65   8  916
1477469358.607:  -2367  65   8  916
