timestamp: ADC HeartRate4sAverage HeartRate30sAverage HRV8sAverage
1477469709.871:    540  67   9  886
1477469709.872:    554  67   9  886
1477469709.872:    565  67   9  886
1477469709.872:    576  67   9  886
1477469709.872:    573  67   9  886
1477469709.873:    549  67   9  886
1477469709.873:    521  67   9  886
1477469709.874:    511  67   9  886
1477469709.875:    520  67   9  886
1477469709.875:    530  67   9  886
1477469709.877:    522  67   9  886
1477469709.880:    502  67   9  886
1477469709.891:    493  67   9  886
1477469709.891:    505  67   9  886
1477469709.892:    525  67   9  886
1477469709.893:    533  67   9  886
1477469709.894:    525  67   9  886
1477469709.894:    509  67   9  886
1477469709.895:    505  67   9  886
1477469709.895:    520  67   9  886
1477469709.896:    548  67   9  886
1477469709.899:    577  67   9  886
1477469709.900:    593  67   9  886
1477469709.902:    588  67   9  886
1477469709.903:    568  67   9  886
1477469709.908:    548  67   9  886
1477469709.921:    539  67   9  886
1477469709.921:    538  67   9  886
1477469709.921:    532  67   9  886
1477469709.922:    516  67   9  886
1477469709.922:    503  67   9  886
1477469709.923:    506  67   9  886
1477469709.924:    524  67   9  886
1477469709.924:    541  67   9  886
1477469709.925:    543  67   9  886
1477469709.925:    536  67   9  886
1477469709.927:    533  67   9  886
1477469709.929:    539  67   9  886
1477469709.932:    546  67   9  886
1477469709.935:    547  67   9  886
1477469709.936:    544  67   9  886
1477469709.937:    544  67   9  886
1477469709.939:    548  67   9  886
1477469709.941:    552  67   9  886
1477469709.944:    549  67   9  886
1477469709.945:    538  67   9  886
1477469709.961:    524  67   9  886
1477469709.961:    511  67   9  886
1477469709.961:    505  67   9  886
1477469709.962:    508  67   9  886
1477469709.962:    511  67   9  886
1477469709.962:    507  67   9  886
1477469709.965:    496  67   9  886
1477469709.965:    485  67   9  886
1477469709.966:    487  67   9  886
1477469709.966:    498  67   9  886
1477469709.966:    503  67   9  886
1477469709.968:    490  67   9  886
1477469709.978:    462  67   9  886
1477469709.978:    439  67   9  886
1477469709.978:    435  67   9  886
1477469709.978:    447  67   9  886
1477469709.980:    453  67   9  886
1477469709.982:    430  67   9  886
1477469709.982:    379  67   9  886
1477469709.983:    318  67   9  886
1477469709.986:    276  67   9  886
1477469709.990:    261  67   9  886
1477469709.990:    256  67   9  886
1477469709.992:    246  67   9  886
1477469709.994:    231  67   9  886
1477469709.996:    228  67   9  886
1477469710.011:    245  67   9  886
1477469710.012:    270  67   9  886
1477469710.012:    287  67   9  886
1477469710.013:    294  67   9  886
1477469710.014:    307  67   9  886
1477469710.015:    326  67   9  886
1477469710.015:    339  67   9  886
1477469710.017:    338  67   9  886
1477469710.018:    337  67   9  886
1477469710.018:    357  67   9  886
1477469710.029:    403  67   9  886
1477469710.029:    461  67   9  886
1477469710.030:    506  67   9  886
1477469710.030:    535  67   9  886
1477469710.030:    559  67   9  886
1477469710.030:    585  67   9  886
1477469710.030:    612  67   9  886
1477469710.031:    633  67   9  886
1477469710.038:    646  67   9  886
1477469710.038:    657  67   9  886
1477469710.039:    667  67   9  886
1477469710.041:    674  67   9  886
1477469710.042:    677  67   9  886
1477469710.043:    677  67   9  886
1477469710.045:    674  67   9  886
1477469710.049:    670  67   9  886
1477469710.049:    667  67   9  886
1477469710.051:    668  67   9  886
1477469710.054:    680  67   9  886
1477469710.055:    703  67   9  886
1477469710.057:    723  67   9  886
1477469710.058:    721  67   9  886
1477469710.070:    691  67   9  886
1477469710.071:    657  67   9  886
1477469710.071:    648  67   9  886
1477469710.072:    673  67   9  886
1477469710.072:    703  67   9  886
1477469710.072:    703  67   9  886
1477469710.074:    674  67   9  886
1477469710.075:    655  67   9  886
1477469710.076:    673  67   9  886
1477469710.078:    715  67   9  886
1477469710.089:    734  67   9  886
1477469710.089:    709  67   9  886
1477469710.090:    661  67   9  886
1477469710.090:    627  67   9  886
1477469710.090:    618  67   9  886
1477469710.091:    615  67   9  886
1477469710.123:    603  67   9  886
1477469710.126:    587  67   9  886
1477469710.133:    573  67   9  886
1477469710.133:    559  67   9  886
1477469710.133:    543  67   9  886
1477469710.133:    524  67   9  886
1477469710.133:    496  67   9  886
1477469710.134:    443  67   9  886
1477469710.134:    344  67   9  886
1477469710.134:    205  67   9  886
1477469710.134:     55  67   9  886
1477469710.134:    -82  67   9  886
1477469710.134:   -198  67   9  886
1477469710.134:   -302  67   9  886
1477469710.134:   -419  67   9  886
1477469710.135:   -584  67   9  886
1477469710.135:   -836  67   9  886
1477469710.135:  -1193  67   9  886
1477469710.135:  -1651  67   9  886
1477469710.135:  -2195  67   9  886
1477469710.137:  -2819  67   9  886
1477469710.139:  -3506  67   9  886
1477469710.139:  -4187  67   9  886
1477469710.141:  -4744  67   9  886
1477469710.141:  -5040  67   9  886
1477469710.143:  -4963  67   9  886
1477469710.144:  -4429  67   9  886
1477469710.145:  -3405  67   9  886
1477469710.157:  -1972  67   9  886
1477469710.157:   -342  67   9  886
1477469710.158:   1240  67   9  886
1477469710.159:   2637  67   9  886
1477469710.160:   3843  67   9  886
1477469710.160:   4853  67   9  886
1477469710.161:   5545  67   9  886
1477469710.161:   5740  67   9  886
1477469710.162:   5391  67   9  886
1477469710.171:   4678  67   9  886
1477469710.176:   3880  67   9  886
1477469710.176:   3175  67   9  886
1477469710.176:   2586  67   9  886
1477469710.177:   2076  67   9  886
1477469710.178:   1662  67   9  886
1477469710.179:   1394  67   9  886
1477469710.183:   1273  67   9  884
1477469710.183:   1236  67   9  884
1477469710.193:   1215  67   9  884
1477469710.193:   1178  67   9  884
1477469710.193:   1119  67   9  884
1477469710.194:   1023  67   9  884
1477469710.194:    874  67   9  884
1477469710.196:    693  67   9  884
1477469710.198:    536  67   9  884
1477469710.199:    451  67   9  884
1477469710.200:    439  67   9  884
1477469710.200:    464  67   9  884
1477469710.212:    479  67   9  884
1477469710.213:    465  67   9  884
1477469710.213:    434  67   9  884
1477469710.214:    403  67   9  884
1477469710.215:    375  67   9  884
1477469710.215:    340  67   9  884
1477469710.216:    296  67   9  884
1477469710.217:    254  67   9  884
1477469710.218:    239  67   9  884
1477469710.219:    262  67   9  884
1477469710.222:    306  67   9  884
1477469710.223:    334  67   9  884
1477469710.227:    318  67   9  884
1477469710.228:    260  67   9  884
1477469710.229:    189  67   9  884
1477469710.230:    136  67   9  884
1477469710.233:    116  67   9  884
1477469710.236:    118  67   9  884
1477469710.249:    117  67   9  884
1477469710.250:    100  67   9  884
1477469710.251:     78  67   9  884
1477469710.252:     75  67   9  884
1477469710.252:     96  67   9  884
1477469710.253:    121  67   9  884
1477469710.254:    124  67   9  884
1477469710.254:    112  67   9  884
1477469710.255:    123  67   9  884
1477469710.255:    179  67   9  884
1477469710.266:    250  67   9  884
1477469710.267:    286  67   9  884
1477469710.268:    270  67   9  884
1477469710.269:    236  67   9  884
1477469710.270:    231  67   9  884
1477469710.271:    255  67   9  884
1477469710.272:    268  67   9  884
1477469710.274:    245  67   9  884
1477469710.276:    204  67   9  884
1477469710.277:    181  67   9  884
1477469710.279:    184  67   9  884
1477469710.283:    194  67   9  884
1477469710.283:    188  67   9  884
1477469710.283:    166  67   9  884
1477469710.284:    138  67   9  884
1477469710.287:    109  67   9  884
1477469710.289:     78  67   9  884
1477469710.289:     44  67   9  884
1477469710.296:     19  67   9  884
1477469710.297:     16  67   9  884
1477469710.303:     31  67   9  884
1477469710.304:     48  67   9  884
1477469710.305:     49  67   9  884
1477469710.306:     26  67   9  884
1477469710.307:    -10  67   9  884
1477469710.307:    -36  67   9  884
1477469710.310:    -38  67   9  884
1477469710.311:    -29  67   9  884
1477469710.312:    -30  67   9  884
1477469710.314:    -56  67   9  884
1477469710.316:    -91  67   9  884
1477469710.318:   -110  67   9  884
1477469710.319:   -106  67   9  884
1477469710.322:   -100  67   9  884
1477469710.338:   -113  67   9  884
1477469710.339:   -146  67   9  884
1477469710.340:   -185  67   9  884
1477469710.340:   -219  67   9  884
1477469710.341:   -246  67   9  884
1477469710.342:   -262  67   9  884
1477469710.342:   -263  67   9  884
1477469710.343:   -255  67   9  884
1477469710.344:   -251  67   9  884
1477469710.344:   -263  67   9  884
1477469710.346:   -289  67   9  884
1477469710.348:   -316  67   9  884
1477469710.357:   -342  67   9  884
1477469710.358:   -374  67   9  884
1477469710.358:   -420  67   9  884
1477469710.358:   -468  67   9  884
1477469710.359:   -503  67   9  884
1477469710.359:   -523  67   9  884
1477469710.359:   -540  67   9  884
1477469710.364:   -564  67   9  884
1477469710.364:   -596  67   9  884
1477469710.366:   -628  67   9  884
1477469710.376:   -654  67   9  884
1477469710.376:   -673  67   9  884
1477469710.377:   -684  67   9  884
1477469710.378:   -690  67   9  884
1477469710.378:   -694  67   9  884
1477469710.379:   -704  67   9  884
1477469710.379:   -722  67   9  884
1477469710.381:   -741  67   9  884
1477469710.382:   -761  67   9  884
1477469710.388:   -788  67   9  884
1477469710.395:   -826  67   9  884
1477469710.395:   -868  67   9  884
1477469710.395:   -905  67   9  884
1477469710.396:   -935  67   9  884
1477469710.396:   -965  67   9  884
1477469710.396:   -992  67   9  884
1477469710.399:  -1004  67   9  884
1477469710.402:   -990  67   9  884
1477469710.408:   -961  67   9  884
1477469710.409:   -939  67   9  884
1477469710.410:   -928  67   9  884
1477469710.411:   -913  67   9  884
1477469710.411:   -871  67   9  884
1477469710.412:   -803  67   9  884
1477469710.416:   -727  67   9  884
1477469710.419:   -653  67   9  884
1477469710.456:   -575  67   9  884
1477469710.456:   -481  67   9  884
1477469710.457:   -372  67   9  884
1477469710.458:   -263  67   9  884
1477469710.459:   -161  67   9  884
1477469710.460:    -59  67   9  884
1477469710.460:     53  67   9  884
1477469710.461:    178  67   9  884
1477469710.461:    305  67   9  884
1477469710.462:    429  67   9  884
1477469710.463:    550  67   9  884
1477469710.464:    666  67   9  884
1477469710.465:    769  67   9  884
1477469710.465:    854  67   9  884
1477469710.479:    931  67   9  884
1477469710.541:   1019  67   9  884
1477469710.541:   1120  67   9  884
1477469710.541:   1220  67   9  884
1477469710.541:   1298  67   9  884
1477469710.541:   1359  67   9  884
1477469710.542:   1428  67   9  884
1477469710.542:   1524  67   9  884
1477469710.542:   1634  67   9  884
1477469710.542:   1728  67   9  884
1477469710.542:   1790  67   9  884
1477469710.543:   1827  67   9  884
1477469710.543:   1853  67   9  884
1477469710.543:   1874  67   9  884
1477469710.543:   1888  67   9  884
1477469710.544:   1895  67   9  884
1477469710.544:   1899  67   9  884
1477469710.544:   1904  67   9  884
1477469710.556:   1902  67   9  884
1477469710.557:   1887  67   9  884
1477469710.557:   1864  67   9  884
1477469710.557:   1845  67   9  884
1477469710.557:   1831  67   9  884
1477469710.558:   1816  67   9  884
1477469710.558:   1805  67   9  884
1477469710.559:   1811  67   9  884
1477469710.560:   1844  67   9  884
1477469710.560:   1894  67   9  884
1477469710.561:   1936  67   9  884
1477469710.561:   1956  67   9  884
1477469710.561:   1954  67   9  884
1477469710.561:   1936  67   9  884
1477469710.562:   1901  67   9  884
1477469710.562:   1842  67   9  884
1477469710.562:   1772  67   9  884
1477469710.562:   1715  67   9  884
1477469710.563:   1688  67   9  884
1477469710.563:   1680  67   9  884
1477469710.563:   1666  67   9  884
1477469710.563:   1635  67   9  884
1477469710.564:   1606  67   9  884
1477469710.564:   1605  67   9  884
1477469710.564:   1634  67   9  884
1477469710.564:   1662  67   9  884
1477469710.564:   1652  67   9  884
1477469710.565:   1602  67   9  884
1477469710.565:   1546  67   9  884
1477469710.565:   1526  67   9  884
1477469710.577:   1546  67   9  884
1477469710.577:   1565  67   9  884
1477469710.577:   1539  67   9  884
1477469710.577:   1466  67   9  884
1477469710.577:   1390  67   9  884
1477469710.578:   1354  67   9  884
1477469710.578:   1358  67   9  884
1477469710.578:   1369  67   9  884
1477469710.579:   1362  67   9  884
1477469710.579:   1352  67   9  884
1477469710.579:   1362  67   9  884
1477469710.580:   1389  67   9  884
1477469710.580:   1395  67   9  884
1477469710.581:   1358  67   9  884
1477469710.581:   1291  67   9  884
1477469710.581:   1230  67   9  884
1477469710.582:   1191  67   9  884
1477469710.582:   1166  67   9  884
1477469710.583:   1139  67   9  884
1477469710.583:   1118  67   9  884
1477469710.583:   1119  67   9  884
1477469710.584:   1141  67   9  884
1477469710.584:   1159  67   9  884
1477469710.584:   1152  67   9  884
1477469710.587:   1127  67   9  884
1477469710.589:   1099  67   9  884
1477469710.598:   1079  67   9  884
1477469710.598:   1055  67   9  884
1477469710.598:   1023  67   9  884
1477469710.598:    996  67   9  884
1477469710.599:    997  67   9  884
1477469710.601:   1021  67   9  884
1477469710.603:   1041  67   9  884
1477469710.606:   1037  67   9  884
1477469710.640:   1018  67   9  884
1477469710.641:   1009  67   9  884
1477469710.642:   1020  67   9  884
1477469710.643:   1033  67   9  884
1477469710.644:   1030  67   9  884
1477469710.645:   1024  67   9  884
1477469710.645:   1039  67   9  884
1477469710.646:   1076  67   9  884
1477469710.647:   1103  67   9  884
1477469710.649:   1091  67   9  884
1477469710.649:   1045  67   9  884
1477469710.649:    999  67   9  884
1477469710.650:    974  67   9  884
1477469710.650:    965  67   9  884
1477469710.650:    961  67   9  884
1477469710.650:    967  67   9  884
1477469710.651:    998  67   9  884
1477469710.651:   1052  67   9  884
1477469710.651:   1105  67   9  884
1477469710.651:   1133  67   9  884
1477469710.652:   1141  67   9  884
1477469710.652:   1141  67   9  884
1477469710.668:   1132  67   9  884
1477469710.669:   1106  67   9  884
1477469710.669:   1065  67   9  884
1477469710.670:   1031  67   9  884
1477469710.670:   1029  67   9  884
1477469710.671:   1050  67   9  884
1477469710.674:   1062  67   9  884
1477469710.674:   1042  67   9  884
1477469710.675:   1003  67   9  884
1477469710.676:    970  67   9  884
1477469710.676:    950  67   9  884
1477469710.677:    933  67   9  884
1477469710.678:    913  67   9  884
1477469710.678:    906  67   9  884
1477469710.679:    934  67   9  884
1477469710.679:    992  67   9  884
1477469710.683:   1047  67   9  884
1477469710.684:   1070  67   9  884
1477469710.686:   1061  67   9  884
1477469710.686:   1049  67   9  884
1477469710.688:   1044  67   9  884
1477469710.690:   1041  67   9  884
1477469710.706:   1029  67   9  884
1477469710.707:   1013  67   9  884
1477469710.708:   1015  67   9  884
1477469710.708:   1043  67   9  884
1477469710.709:   1083  67   9  884
1477469710.710:   1105  67   9  884
1477469710.710:   1095  67   9  884
1477469710.711:   1065  67   9  884
1477469710.712:   1026  67   9  884
1477469710.714:    986  67   9  884
1477469710.726:    944  67   9  884
1477469710.727:    913  67   9  884
1477469710.728:    909  67   9  884
1477469710.729:    942  67   9  884
1477469710.730:    995  67   9  884
1477469710.730:   1036  67   9  884
1477469710.732:   1045  67   9  884
1477469710.732:   1032  67   9  884
1477469710.735:   1012  67   9  884
1477469710.736:    994  67   9  884
1477469710.761:    978  67   9  884
1477469710.762:    966  67   9  884
1477469710.763:    967  67   9  884
1477469710.763:    991  67   9  884
1477469710.764:   1029  67   9  884
1477469710.765:   1061  67   9  884
1477469710.766:   1068  67   9  884
1477469710.767:   1049  67   9  884
1477469710.769:   1009  67   9  884
1477469710.769:    959  67   9  884
1477469710.780:    911  67   9  884
1477469710.780:    883  67   9  884
1477469710.780:    886  67   9  884
1477469710.780:    922  67   9  884
1477469710.781:    972  67   9  884
1477469710.781:   1008  67   9  884
1477469710.781:   1008  67   9  884
1477469710.781:    979  67   9  884
1477469710.781:    938  67   9  884
1477469710.781:    899  67   9  884
1477469710.781:    859  67   9  884
1477469710.782:    813  67   9  884
1477469710.782:    768  67   9  884
1477469710.782:    753  67   9  884
1477469710.782:    784  67   9  884
1477469710.782:    846  67   9  884
1477469710.786:    890  67   9  884
1477469710.786:    884  67   9  884
1477469710.787:    836  67   9  884
1477469710.789:    780  67   9  884
1477469710.791:    738  67   9  884
1477469710.793:    708  67   9  884
1477469710.801:    683  67   9  884
1477469710.801:    668  67   9  884
1477469710.801:    675  67   9  884
1477469710.801:    697  67   9  884
1477469710.804:    708  67   9  884
1477469710.805:    690  67   9  884
1477469710.807:    652  67   9  884
1477469710.808:    616  67   9  884
1477469710.817:    594  67   9  884
1477469710.817:    581  67   9  884
1477469710.818:    570  67   9  884
1477469710.818:    571  67   9  884
1477469710.822:    602  67   9  884
1477469710.824:    657  67   9  884
1477469710.824:    707  67   9  884
1477469710.826:    726  67   9  884
1477469710.841:    718  67   9  884
1477469710.842:    709  67   9  884
1477469710.843:    715  67   9  884
1477469710.844:    725  67   9  884
1477469710.844:    723  67   9  884
1477469710.845:    716  67   9  884
1477469710.846:    725  67   9  884
1477469710.846:    752  67   9  884
1477469710.847:    759  67   9  884
1477469710.848:    707  67   9  884
1477469710.859:    603  67   9  884
1477469710.860:    494  67   9  884
1477469710.861:    419  67   9  884
1477469710.862:    372  67   9  884
1477469710.862:    321  67   9  884
1477469710.863:    256  67   9  884
1477469710.863:    212  67   9  884
1477469710.864:    214  67   9  884
1477469710.867:    241  67   9  884
1477469710.868:    244  67   9  884
1477469710.878:    207  67   9  884
1477469710.878:    166  67   9  884
1477469710.878:    170  67   9  884
1477469710.878:    220  67   9  884
1477469710.879:    277  67   9  884
1477469710.879:    314  67   9  884
1477469710.882:    346  67   9  884
1477469710.882:    411  67   9  884
1477469710.883:    510  67   9  884
1477469710.884:    603  67   9  884
1477469710.886:    652  67   9  884
1477469710.888:    667  67   9  884
1477469710.889:    681  67   9  884
1477469710.895:    717  67   9  884
1477469710.895:    760  67   9  884
1477469710.896:    785  67   9  884
1477469710.897:    790  67   9  884
1477469710.899:    786  67   9  884
1477469710.900:    777  67   9  884
1477469710.902:    741  67   9  884
1477469710.904:    668  67   9  884
1477469710.907:    578  67   9  884
1477469710.908:    500  67   9  884
1477469710.912:    449  67   9  884
1477469710.934:    412  67   9  884
1477469710.935:    376  67   9  884
1477469710.936:    350  67   9  884
1477469710.936:    347  67   9  884
1477469710.937:    352  67   9  884
1477469710.938:    331  67   9  884
1477469710.940:    270  67   9  884
1477469710.941:    198  67   9  884
1477469710.941:    159  67   9  884
1477469710.942:    164  67   9  884
1477469710.943:    189  67   9  884
1477469710.943:    206  67   9  884
1477469710.944:    217  67   9  884
1477469710.944:    248  67   9  884
1477469710.945:    305  67   9  884
1477469710.946:    359  67   9  884
1477469710.961:    374  67   9  884
1477469710.964:    342  67   9  884
1477469710.965:    285  67   9  884
1477469710.965:    221  67   9  884
1477469710.966:    157  67   9  884
1477469710.966:     89  67   9  884
1477469710.979:     19  67   9  884
1477469710.979:    -43  67   9  884
1477469710.979:   -105  67   9  884
1477469710.979:   -193  67   9  884
1477469710.979:   -323  67   9  884
1477469710.980:   -474  67   9  884
1477469710.980:   -604  67   9  884
1477469710.980:   -700  67   9  884
1477469710.980:   -780  67   9  884
1477469710.980:   -866  67   9  884
1477469710.980:   -945  67   9  884
1477469710.980:   -989  67   9  884
1477469710.980:  -1006  67   9  884
1477469710.981:  -1045  67   9  884
1477469710.983:  -1142  67   9  884
1477469710.986:  -1266  67   9  884
1477469710.990:  -1357  67   9  884
1477469710.990:  -1392  67   9  884
1477469710.992:  -1407  67   9  884
1477469710.993:  -1447  67   9  884
1477469710.996:  -1525  67   9  884
1477469710.997:  -1625  67   9  884
1477469710.998:  -1768  67   9  884
1477469711.004:  -2030  67   9  884
1477469711.004:  -2481  67   9  884
1477469711.005:  -3112  67   9  884
1477469711.007:  -3830  67   9  884
1477469711.009:  -4508  67   9  884
1477469711.010:  -5057  67   9  884
1477469711.013:  -5423  67   9  884
1477469711.035:  -5547  67   9  884
1477469711.036:  -5323  67   9  884
1477469711.036:  -4633  67   9  884
1477469711.037:  -3461  67   9  884
1477469711.039:  -1962  67   9  884
1477469711.039:   -400  67   9  884
1477469711.039:   1012  67   9  884
1477469711.039:   2212  67   9  884
1477469711.040:   3228  67   9  884
1477469711.040:   4028  67   9  884
1477469711.040:   4470  67   9  884
1477469711.041:   4417  67   9  884
1477469711.041:   3904  67   9  884
1477469711.041:   3138  67   9  884
1477469711.045:   2353  67   9  884
1477469711.046:   1668  67   9  884
1477469711.055:   1094  67   9  884
1477469711.055:    616  67   9  884
1477469711.056:    265  67   9  884
1477469711.056:     73  67   9  884
1477469711.056:     29  67   9  884
1477469711.059:     70  67   9  884
1477469711.060:    129  67   9  884
1477469711.063:    163  67   9  884
1477469711.073:    143  67   9  884
1477469711.073:     55  67   9  884
1477469711.074:    -82  67   9  884
1477469711.074:   -220  67   9  884
1477469711.074:   -309  67   9  884
1477469711.076:   -334  67   9  884
1477469711.077:   -319  67   9  884
1477469711.078:   -302  67   9  884
1477469711.078:   -301  67   9  884
1477469711.079:   -314  67   9  884
1477469711.090:   -340  67   9  884
1477469711.091:   -382  67   9  884
1477469711.091:   -440  67   9  884
1477469711.092:   -504  67   9  884
1477469711.093:   -554  67   9  884
1477469711.093:   -572  67   9  884
1477469711.095:   -552  67   9  884
1477469711.095:   -507  67   9  884
1477469711.133:   -460  67   9  884
1477469711.134:   -441  67   9  884
1477469711.143:   -469  67   9  884
1477469711.144:   -541  67   9  884
1477469711.145:   -623  67   9  884
1477469711.145:   -679  67   9  884
1477469711.146:   -695  67   9  884
1477469711.148:   -676  67   9  884
1477469711.149:   -635  67   9  884
1477469711.150:   -589  67   9  884
1477469711.161:   -553  67   9  884
1477469711.161:   -535  67   9  884
1477469711.161:   -529  67   9  884
1477469711.161:   -524  67   9  884
1477469711.162:   -518  67   9  884
1477469711.162:   -520  67   9  884
1477469711.162:   -538  67   9  884
1477469711.162:   -553  67   9  884
1477469711.162:   -534  67   9  884
1477469711.163:   -484  67   9  884
1477469711.163:   -440  67   9  884
1477469711.163:   -438  67   9  884
1477469711.163:   -473  67   9  884
1477469711.163:   -512  67   9  884
1477469711.163:   -541  67   9  884
1477469711.163:   -575  67   9  884
1477469711.164:   -624  67   9  884
1477469711.164:   -665  67   9  884
1477469711.164:   -660  67   9  884
1477469711.164:   -611  67   9  884
1477469711.164:   -558  67   9  884
1477469711.165:   -536  67   9  884
1477469711.165:   -536  67   9  884
1477469711.165:   -533  67   9  884
1477469711.165:   -524  67   9  884
1477469711.169:   -525  67   9  884
1477469711.169:   -554  67   9  884
1477469711.170:   -597  67   9  884
1477469711.173:   -633  67   9  884
1477469711.173:   -652  67   9  884
1477469711.176:   -663  67   9  884
1477469711.177:   -673  67   9  884
1477469711.179:   -683  67   9  884
1477469711.182:   -695  67   9  884
1477469711.183:   -719  67   9  884
1477469711.189:   -750  67   9  884
1477469711.200:   -778  67   9  884
1477469711.202:   -792  67   9  884
1477469711.203:   -795  67   9  884
1477469711.205:   -794  67   9  884
1477469711.205:   -788  67   9  884
1477469711.205:   -770  67   9  884
1477469711.205:   -746  67   9  884
1477469711.205:   -737  67   9  884
1477469711.206:   -763  67   9  884
1477469711.207:   -807  67   9  884
1477469711.208:   -838  67   9  884
1477469711.208:   -843  67   9  884
1477469711.220:   -840  67   9  884
1477469711.220:   -852  67   9  884
1477469711.220:   -881  67   9  884
1477469711.221:   -906  67   9  884
1477469711.221:   -913  67   9  884
1477469711.224:   -921  67   9  884
1477469711.224:   -960  67   9  884
1477469711.226:  -1030  67   9  884
1477469711.226:  -1105  67   9  884
1477469711.229:  -1158  67   9  884
1477469711.232:  -1183  67   9  884
1477469711.233:  -1197  67   9  884
1477469711.252:  -1212  67   9  884
1477469711.253:  -1227  67   9  884
1477469711.253:  -1236  67   9  884
1477469711.253:  -1247  67   9  884
1477469711.253:  -1270  67   9  884
1477469711.254:  -1309  67   9  884
1477469711.254:  -1357  67   9  884
1477469711.255:  -1402  67   9  884
1477469711.255:  -1434  67   9  884
1477469711.255:  -1443  67   9  884
1477469711.255:  -1424  67   9  884
1477469711.257:  -1392  67   9  884
1477469711.258:  -1364  67   9  884
1477469711.259:  -1352  67   9  884
1477469711.265:  -1355  67   9  884
1477469711.265:  -1365  67   9  884
1477469711.269:  -1380  67   9  884
1477469711.269:  -1404  67   9  884
1477469711.279:  -1434  67   9  884
1477469711.280:  -1453  67   9  884
1477469711.280:  -1440  67   9  884
1477469711.281:  -1400  67   9  884
1477469711.282:  -1353  67   9  884
1477469711.283:  -1322  67   9  884
1477469711.284:  -1313  67   9  884
1477469711.284:  -1315  67   9  884
1477469711.286:  -1303  67   9  884
1477469711.289:  -1266  67   9  884
1477469711.300:  -1206  67   9  884
1477469711.301:  -1136  67   9  884
1477469711.302:  -1060  67   9  884
1477469711.303:   -973  67   9  884
1477469711.304:   -863  67   9  884
1477469711.305:   -727  67   9  884
1477469711.305:   -584  67   9  884
1477469711.307:   -459  67   9  884
1477469711.307:   -358  67   9  884
1477469711.310:   -266  67   9  884
1477469711.330:   -166  67   9  884
1477469711.330:    -49  67   9  884
1477469711.331:     80  67   9  884
1477469711.331:    216  67   9  884
1477469711.331:    353  67   9  884
1477469711.331:    488  67   9  884
1477469711.331:    610  67   9  884
1477469711.332:    704  67   9  884
1477469711.332:    770  67   9  884
1477469711.332:    824  67   9  884
1477469711.332:    886  67   9  884
1477469711.333:    960  67   9  884
1477469711.333:   1035  67   9  884
1477469711.337:   1093  67   9  884
1477469711.338:   1123  67   9  884
1477469711.340:   1139  67   9  884
1477469711.340:   1158  67   9  884
1477469711.342:   1182  67   9  884
1477469711.345:   1195  67   9  884
1477469711.347:   1183  67   9  884
1477469711.360:   1151  67   9  884
1477469711.433:   1123  67   9  884
1477469711.441:   1120  67   9  884
1477469711.441:   1145  67   9  884
1477469711.441:   1186  67   9  884
1477469711.441:   1233  67   9  884
1477469711.441:   1279  67   9  884
1477469711.442:   1314  67   9  884
1477469711.442:   1322  67   9  884
1477469711.442:   1304  67   9  884
1477469711.442:   1278  67   9  884
1477469711.442:   1265  67   9  884
1477469711.442:   1272  67   9  884
1477469711.442:   1290  67   9  884
1477469711.443:   1307  67   9  884
1477469711.443:   1322  67   9  884
1477469711.443:   1335  67   9  884
1477469711.443:   1339  67   9  884
1477469711.443:   1319  67   9  884
1477469711.443:   1276  67   9  884
1477469711.443:   1221  67   9  884
1477469711.443:   1165  67   9  884
1477469711.444:   1117  67   9  884
1477469711.444:   1081  67   9  884
1477469711.444:   1060  67   9  884
1477469711.444:   1050  67   9  884
1477469711.444:   1037  67   9  884
1477469711.444:   1005  67   9  884
1477469711.444:    956  67   9  884
1477469711.445:    908  67   9  884
1477469711.445:    874  67   9  884
1477469711.445:    848  67   9  884
1477469711.445:    820  67   9  884
1477469711.445:    801  67   9  884
1477469711.445:    806  67   9  884
1477469711.445:    838  67   9  884
1477469711.446:    873  67   9  884
1477469711.446:    881  67   9  884
1477469711.446:    858  67   9  884
1477469711.446:    825  67   9  884
1477469711.446:    800  67   9  884
1477469711.446:    775  67   9  884
1477469711.446:    736  67   9  884
1477469711.447:    695  67   9  884
1477469711.447:    676  67   9  884
1477469711.447:    693  67   9  884
1477469711.447:    723  67   9  884
1477469711.447:    731  67   9  884
1477469711.447:    700  67   9  884
1477469711.447:    644  67   9  884
1477469711.447:    589  67   9  884
1477469711.448:    548  67   9  884
1477469711.450:    524  67   9  884
1477469711.452:    516  67   9  884
1477469711.456:    520  67   9  884
1477469711.456:    522  67   9  884
1477469711.458:    505  67   9  884
1477469711.459:    469  67   9  884
1477469711.470:    425  67   9  884
1477469711.470:    392  67   9  884
1477469711.470:    372  67   9  884
1477469711.470:    355  67   9  884
1477469711.471:    335  67   9  884
1477469711.472:    327  67   9  884
1477469711.474:    345  67   9  884
1477469711.476:    381  67   9  884
1477469711.478:    416  67   9  884
1477469711.480:    432  67   9  884
1477469711.491:    424  67   9  884
1477469711.491:    401  67   9  884
1477469711.492:    373  67   9  884
1477469711.493:    339  67   9  884
1477469711.494:    305  67   9  884
1477469711.495:    278  67   9  884
1477469711.496:    275  67   9  884
1477469711.497:    301  67   9  884
1477469711.498:    348  67   9  884
1477469711.500:    395  67   9  884
1477469711.509:    417  67   9  884
1477469711.510:    400  67   9  884
1477469711.510:    361  67   9  884
1477469711.510:    323  67   9  884
1477469711.513:    302  67   9  884
1477469711.513:    294  67   9  884
1477469711.513:    288  67   9  884
1477469711.514:    277  67   9  884
1477469711.521:    266  67   9  884
1477469711.521:    258  67   9  884
1477469711.528:    248  67   9  884
1477469711.529:    226  67   9  884
1477469711.529:    197  67   9  884
1477469711.531:    166  67   9  884
1477469711.535:    133  67   9  884
1477469711.536:    102  67   9  884
1477469711.547:     80  67   9  884
1477469711.547:     79  67   9  884
1477469711.547:    100  67   9  884
1477469711.547:    132  67   9  884
1477469711.548:    154  67   9  884
1477469711.548:    150  67   9  884
1477469711.548:    123  67   9  884
1477469711.548:     86  67   9  884
1477469711.549:     48  67   9  884
1477469711.553:     18  67   9  884
1477469711.554:      2  67   9  884
1477469711.556:     -1  67   9  884
1477469711.567:      7  67   9  884
1477469711.568:     24  67   9  884
1477469711.568:     42  67   9  884
1477469711.569:     53  67   9  884
1477469711.569:     48  67   9  884
1477469711.569:     27  67   9  884
1477469711.570:     -2  67   9  884
1477469711.571:    -24  67   9  884
1477469711.576:    -28  67   9  884
1477469711.576:    -19  67   9  884
1477469711.578:     -5  67   9  884
1477469711.579:     14  67   9  884
1477469711.580:     39  67   9  884
1477469711.582:     66  67   9  884
1477469711.585:     82  67   9  884
1477469711.591:     79  67   9  884
1477469711.593:     63  67   9  884
1477469711.594:     55  67   9  884
1477469711.594:     73  67   9  884
1477469711.595:    117  67   9  884
1477469711.596:    162  67   9  884
1477469711.599:    189  67   9  884
1477469711.616:    197  67   9  884
1477469711.617:    191  67   9  884
1477469711.618:    174  67   9  884
1477469711.619:    145  67   9  884
1477469711.619:    105  67   9  884
1477469711.620:     67  67   9  884
1477469711.620:     49  67   9  884
1477469711.620:     60  67   9  884
1477469711.623:     88  67   9  884
1477469711.623:    111  67   9  884
1477469711.623:    116  67   9  884
1477469711.624:    107  67   9  884
1477469711.624:     91  67   9  884
1477469711.626:     76  67   9  884
1477469711.637:     58  67   9  884
1477469711.637:     35  67   9  884
1477469711.640:     14  67   9  884
1477469711.640:     11  67   9  884
1477469711.641:     40  67   9  884
1477469711.641:     96  67   9  884
1477469711.642:    157  67   9  884
1477469711.643:    195  67   9  884
1477469711.644:    193  67   9  884
1477469711.645:    163  67   9  884
1477469711.648:    132  67   9  884
1477469711.649:    114  67   9  884
1477469711.651:    110  67   9  884
1477469711.653:    120  67   9  884
1477469711.664:    144  67   9  884
1477469711.666:    186  67   9  884
1477469711.666:    234  67   9  884
1477469711.666:    263  67   9  884
1477469711.667:    257  67   9  884
1477469711.667:    225  67   9  884
1477469711.667:    196  67   9  884
1477469711.672:    179  67   9  884
1477469711.673:    166  67   9  884
1477469711.673:    144  67   9  884
1477469711.674:    121  67   9  884
1477469711.676:    118  67   9  884
1477469711.685:    141  67   9  884
1477469711.686:    166  67   9  884
1477469711.686:    164  67   9  884
1477469711.686:    130  67   9  884
1477469711.689:     93  67   9  884
1477469711.690:     80  67   9  884
1477469711.691:     93  67   9  884
1477469711.692:    118  67   9  884
1477469711.695:    144  67   9  884
1477469711.696:    172  67   9  884
1477469711.708:    208  67   9  884
1477469711.709:    246  67   9  884
1477469711.710:    269  67   9  884
1477469711.711:    267  67   9  884
1477469711.711:    250  67   9  884
1477469711.712:    232  67   9  884
1477469711.713:    220  67   9  884
1477469711.714:    216  67   9  884
1477469711.714:    218  67   9  884
1477469711.718:    228  67   9  884
1477469711.730:    245  67   9  884
1477469711.730:    259  67   9  884
1477469711.731:    250  67   9  884
1477469711.732:    203  67   9  884
1477469711.734:    130  67   9  884
1477469711.734:     58  67   9  884
1477469711.735:     11  67   9  884
1477469711.735:     -7  67   9  884
1477469711.736:    -13  67   9  884
1477469711.737:    -22  67   9  884
1477469711.752:    -31  67   9  884
1477469711.752:    -28  67   9  884
1477469711.752:    -16  67   9  884
1477469711.753:    -21  67   9  884
1477469711.753:    -63  67   9  884
1477469711.754:   -124  67   9  884
1477469711.754:   -161  67   9  884
1477469711.755:   -146  67   9  884
1477469711.755:    -98  67   9  884
1477469711.756:    -64  67   9  884
1477469711.760:    -58  67   9  884
1477469711.760:    -54  67   9  884
1477469711.763:    -18  67   9  884
1477469711.765:     36  67   9  884
1477469711.766:     67  67   9  884
1477469711.766:     53  67   9  884
1477469711.773:     11  67   9  884
1477469711.773:    -10  67   9  884
1477469711.773:     14  67   9  884
1477469711.774:     73  67   9  884
1477469711.777:    140  67   9  884
1477469711.779:    193  67   9  884
1477469711.805:    222  67   9  884
1477469711.807:    224  67   9  884
1477469711.823:    214  67   9  884
1477469711.823:    213  67   9  884
1477469711.824:    232  67   9  884
1477469711.824:    257  67   9  884
1477469711.824:    266  67   9  884
1477469711.824:    262  67   9  884
1477469711.825:    272  67   9  884
1477469711.825:    317  67   9  884
1477469711.825:    383  67   9  884
1477469711.825:    417  67   9  884
1477469711.826:    386  67   9  884
1477469711.826:    313  67   9  884
1477469711.826:    253  67   9  884
1477469711.826:    247  67   9  884
1477469711.827:    285  67   9  884
1477469711.827:    325  67   9  884
1477469711.827:    342  67   9  884
1477469711.827:    348  67   9  884
1477469711.828:    372  67   9  884
1477469711.828:    411  67   9  884
1477469711.828:    434  67   9  884
1477469711.829:    418  67   9  884
1477469711.829:    374  67   9  884
1477469711.831:    337  67   9  884
1477469711.831:    328  67   9  884
1477469711.833:    339  67   9  884
1477469711.836:    353  67   9  884
1477469711.841:    369  67   9  884
1477469711.880:    393  67   9  884
1477469711.880:    410  67   9  884
1477469711.880:    388  67   9  884
1477469711.881:    320  67   9  884
1477469711.881:    240  67   9  884
1477469711.881:    198  67   9  884
1477469711.881:    207  67   9  884
1477469711.881:    229  67   9  884
1477469711.882:    220  67   9  884
1477469711.882:    181  67   9  884
1477469711.882:    156  67   9  884
1477469711.882:    169  67   9  884
1477469711.883:    179  67   9  884
1477469711.883:    122  67   9  884
1477469711.886:    -16  67   9  884
1477469711.886:   -189  67   9  884
1477469711.886:   -337  67   9  884
1477469711.886:   -441  67   9  884
1477469711.886:   -522  67   9  884
1477469711.887:   -611  67   9  884
1477469711.887:   -730  67   9  884
1477469711.887:   -920  67   9  884
1477469711.887:  -1226  67   9  884
1477469711.889:  -1666  67   9  884
1477469711.902:  -2212  67   9  884
1477469711.906:  -2826  67   9  884
1477469711.906:  -3484  67   9  884
1477469711.909:  -4156  67   9  884
1477469711.909:  -4759  67   9  884
1477469711.913:  -5169  67   9  884
1477469711.921:  -5263  67   9  884
1477469711.923:  -4960  67   9  884
1477469711.925:  -4216  67   9  884
1477469711.927:  -3035  67   9  884
1477469711.929:  -1512  67   9  884
1477469711.930:    149  67   9  884
1477469711.932:   1717  67   9  884
1477469711.933:   3057  67   9  884
1477469711.933:   4150  67   9  884
1477469711.934:   4968  67   9  884
1477469711.935:   5407  67   9  884
1477469711.936:   5346  67   9  884
1477469711.938:   4802  67   9  884
1477469711.939:   3981  67   9  884
1477469711.940:   3139  67   9  884
1477469711.941:   2419  67   9  884
1477469711.941:   1832  67   9  884
1477469711.942:   1355  67   9  884
1477469711.943:   1012  67   9  884
1477469711.944:    840  67   9  883
1477469711.944:    818  67   9  883
1477469711.945:    851  67   9  883
1477469711.964:    839  67   9  883
1477469711.964:    749  67   9  883
1477469711.964:    614  67   9  883
1477469711.964:    486  67   9  883
1477469711.964:    385  67   9  883
1477469711.965:    295  67   9  883
1477469711.965:    200  67   9  883
1477469711.965:    118  67   9  883
1477469711.965:     93  67   9  883
1477469711.965:    144  67   9  883
1477469711.965:    224  67   9  883
1477469711.966:    253  67   9  883
1477469711.966:    192  67   9  883
1477469711.967:     76  67   9  883
1477469711.968:    -27  67   9  883
1477469711.971:    -73  67   9  883
1477469711.973:    -71  67   9  883
1477469711.978:    -53  67   9  883
1477469711.978:    -33  67   9  883
1477469711.979:     -5  67   9  883
1477469711.981:     26  67   9  883
1477469711.982:     39  67   9  883
1477469711.985:     13  67   9  883
1477469711.987:    -47  67   9  883
1477469712.000:   -117  67   9  883
1477469712.001:   -174  67   9  883
1477469712.002:   -204  67   9  883
1477469712.003:   -211  67   9  883
1477469712.003:   -200  67   9  883
1477469712.005:   -178  67   9  883
1477469712.006:   -160  67   9  883
1477469712.008:   -164  67   9  883
1477469712.020:   -196  67   9  883
1477469712.021:   -233  67   9  883
1477469712.021:   -249  67   9  883
1477469712.022:   -230  67   9  883
1477469712.023:   -189  67   9  883
1477469712.023:   -145  67   9  883
1477469712.024:   -108  67   9  883
1477469712.025:    -70  67   9  883
1477469712.025:    -39  67   9  883
1477469712.026:    -42  67   9  883
1477469712.026:    -92  67   9  883
1477469712.027:   -162  67   9  883
1477469712.028:   -209  67   9  883
1477469712.030:   -215  67   9  883
1477469712.036:   -203  67   9  883
1477469712.036:   -201  67   9  883
1477469712.039:   -205  67   9  883
1477469712.039:   -187  67   9  883
1477469712.040:   -142  67   9  883
1477469712.041:   -112  67   9  883
1477469712.044:   -141  67   9  883
1477469712.046:   -222  67   9  883
1477469712.048:   -303  67   9  883
1477469712.049:   -341  67   9  883
1477469712.051:   -338  67   9  883
1477469712.055:   -327  67   9  883
1477469712.070:   -331  67   9  883
1477469712.071:   -341  67   9  883
1477469712.072:   -348  67   9  883
1477469712.073:   -357  67   9  883
1477469712.073:   -386  67   9  883
1477469712.074:   -430  67   9  883
1477469712.075:   -464  67   9  883
1477469712.075:   -471  67   9  883
1477469712.076:   -454  67   9  883
1477469712.076:   -434  67   9  883
1477469712.079:   -423  67   9  883
1477469712.081:   -419  67   9  883
1477469712.082:   -417  67   9  883
1477469712.083:   -425  67   9  883
1477469712.084:   -459  67   9  883
1477469712.088:   -518  67   9  883
1477469712.103:   -576  67   9  883
1477469712.104:   -614  67   9  883
1477469712.106:   -625  67   9  883
1477469712.107:   -626  67   9  883
1477469712.107:   -629  67   9  883
1477469712.108:   -633  67   9  883
1477469712.109:   -631  67   9  883
1477469712.110:   -633  67   9  883
1477469712.136:   -666  67   9  883
1477469712.137:   -738  67   9  883
1477469712.142:   -824  67   9  883
1477469712.143:   -886  67   9  883
1477469712.143:   -908  67   9  883
1477469712.143:   -904  67   9  883
1477469712.143:   -903  67   9  883
1477469712.143:   -917  67   9  883
1477469712.143:   -937  67   9  883
1477469712.144:   -958  67   9  883
1477469712.144:   -989  67   9  883
1477469712.144:  -1042  67   9  883
1477469712.144:  -1109  67   9  883
1477469712.144:  -1166  67   9  883
1477469712.144:  -1201  67   9  883
1477469712.146:  -1215  67   9  883
1477469712.150:  -1221  67   9  883
1477469712.150:  -1226  67   9  883
1477469712.151:  -1230  67   9  883
1477469712.152:  -1241  67   9  883
1477469712.153:  -1272  67   9  883
1477469712.154:  -1325  67   9  883
1477469712.164:  -1382  67   9  883
1477469712.164:  -1424  67   9  883
1477469712.165:  -1449  67   9  883
1477469712.165:  -1462  67   9  883
1477469712.165:  -1463  67   9  883
1477469712.165:  -1447  67   9  883
1477469712.165:  -1411  67   9  883
1477469712.165:  -1374  67   9  883
1477469712.166:  -1357  67   9  883
1477469712.166:  -1363  67   9  883
1477469712.166:  -1366  67   9  883
1477469712.167:  -1345  67   9  883
1477469712.170:  -1302  67   9  883
1477469712.175:  -1248  67   9  883
1477469712.176:  -1186  67   9  883
1477469712.176:  -1112  67   9  883
1477469712.177:  -1022  67   9  883
1477469712.178:   -924  67   9  883
1477469712.180:   -830  67   9  883
1477469712.183:   -743  67   9  883
1477469712.187:   -651  67   9  883
1477469712.188:   -535  67   9  883
1477469712.201:   -396  67   9  883
1477469712.202:   -247  67   9  883
1477469712.204:   -103  67   9  883
1477469712.206:     27  67   9  883
1477469712.207:    146  67   9  883
1477469712.207:    260  67   9  883
1477469712.220:    364  67   9  883
1477469712.221:    446  67   9  883
1477469712.223:    502  67   9  883
1477469712.223:    550  67   9  883
1477469712.226:    614  67   9  883
1477469712.226:    702  67   9  883
1477469712.227:    803  67   9  883
1477469712.228:    902  67   9  883
1477469712.239:    992  67   9  883
1477469712.240:   1076  67   9  883
1477469712.242:   1150  67   9  883
1477469712.242:   1198  67   9  883
1477469712.243:   1211  67   9  883
1477469712.244:   1208  67   9  883
1477469712.320:   1214  67   9  883
1477469712.320:   1243  67   9  883
1477469712.320:   1284  67   9  883
1477469712.320:   1322  67   9  883
1477469712.320:   1352  67   9  883
1477469712.321:   1381  67   9  883
1477469712.321:   1412  67   9  883
1477469712.321:   1429  67   9  883
1477469712.321:   1420  67   9  883
1477469712.321:   1391  67   9  883
1477469712.322:   1365  67   9  883
1477469712.322:   1358  67   9  883
1477469712.322:   1369  67   9  883
1477469712.322:   1384  67   9  883
1477469712.322:   1395  67   9  883
1477469712.322:   1409  67   9  883
1477469712.323:   1432  67   9  883
1477469712.323:   1453  67   9  883
1477469712.323:   1452  67   9  883
1477469712.323:   1425  67   9  883
1477469712.323:   1388  67   9  883
1477469712.323:   1362  67   9  883
1477469712.324:   1349  67   9  883
1477469712.324:   1343  67   9  883
1477469712.324:   1342  67   9  883
1477469712.324:   1357  67   9  883
1477469712.324:   1390  67   9  883
1477469712.324:   1422  67   9  883
1477469712.325:   1421  67   9  883
1477469712.325:   1385  67   9  883
1477469712.325:   1341  67   9  883
1477469712.325:   1320  67   9  883
1477469712.325:   1331  67   9  883
1477469712.325:   1357  67   9  883
1477469712.325:   1378  67   9  883
1477469712.326:   1389  67   9  883
1477469712.326:   1391  67   9  883
1477469712.326:   1384  67   9  883
1477469712.326:   1363  67   9  883
1477469712.326:   1328  67   9  883
1477469712.326:   1294  67   9  883
1477469712.326:   1264  67   9  883
1477469712.327:   1237  67   9  883
1477469712.327:   1213  67   9  883
1477469712.327:   1196  67   9  883
1477469712.327:   1198  67   9  883
1477469712.327:   1215  67   9  883
1477469712.327:   1230  67   9  883
1477469712.327:   1219  67   9  883
1477469712.328:   1181  67   9  883
1477469712.340:   1136  67   9  883
1477469712.340:   1104  67   9  883
1477469712.340:   1089  67   9  883
1477469712.340:   1077  67   9  883
1477469712.340:   1063  67   9  883
1477469712.341:   1059  67   9  883
1477469712.341:   1078  67   9  883
1477469712.341:   1107  67   9  883
1477469712.343:   1107  67   9  883
1477469712.344:   1054  67   9  883
1477469712.345:    975  67   9  883
1477469712.347:    920  67   9  883
1477469712.364:    915  67   9  883
1477469712.364:    937  67   9  883
1477469712.364:    945  67   9  883
1477469712.365:    931  67   9  883
1477469712.365:    923  67   9  883
1477469712.365:    941  67   9  883
1477469712.365:    965  67   9  883
1477469712.365:    953  67   9  883
1477469712.366:    900  67   9  883
1477469712.367:    837  67   9  883
1477469712.372:    798  67   9  883
1477469712.372:    784  67   9  883
1477469712.382:    776  67   9  883
1477469712.382:    762  67   9  883
1477469712.382:    756  67   9  883
1477469712.382:    767  67   9  883
1477469712.384:    782  67   9  883
1477469712.386:    779  67   9  883
1477469712.386:    760  67   9  883
1477469712.388:    744  67   9  883
1477469712.390:    740  67   9  883
1477469712.391:    743  67   9  883
1477469712.392:    747  67   9  883
1477469712.395:    766  67   9  883
1477469712.400:    816  67   9  883
1477469712.400:    882  67   9  883
1477469712.402:    921  67   9  883
1477469712.402:    902  67   9  883
1477469712.405:    846  67   9  883
1477469712.407:    797  67   9  883
1477469712.408:    778  67   9  883
1477469712.411:    774  67   9  883
1477469712.412:    759  67   9  883
1477469712.418:    733  67   9  883
1477469712.429:    719  67   9  883
1477469712.430:    734  67   9  883
1477469712.431:    760  67   9  883
1477469712.431:    765  67   9  883
1477469712.432:    740  67   9  883
1477469712.433:    704  67   9  883
1477469712.434:    677  67   9  883
1477469712.434:    665  67   9  883
1477469712.435:    663  67   9  883
1477469712.435:    669  67   9  883
1477469712.439:    685  67   9  883
1477469712.439:    708  67   9  883
1477469712.442:    725  67   9  883
1477469712.442:    726  67   9  883
1477469712.445:    709  67   9  883
1477469712.447:    686  67   9  883
1477469712.448:    668  67   9  883
1477469712.449:    662  67   9  883
1477469712.452:    673  67   9  883
1477469712.453:    703  67   9  883
1477469712.457:    746  67   9  883
1477469712.458:    791  67   9  883
1477469712.459:    826  67   9  883
1477469712.462:    838  67   9  883
1477469712.478:    825  67   9  883
1477469712.479:    791  67   9  883
1477469712.479:    750  67   9  883
1477469712.480:    718  67   9  883
1477469712.481:    703  67   9  883
1477469712.481:    701  67   9  883
1477469712.482:    695  67   9  883
1477469712.483:    682  67   9  883
1477469712.484:    670  67   9  883
1477469712.484:    664  67   9  883
1477469712.485:    654  67   9  883
1477469712.485:    626  67   9  883
1477469712.490:    578  67   9  883
1477469712.490:    525  67   9  883
1477469712.494:    495  67   9  883
1477469712.494:    507  67   9  883
1477469712.495:    550  67   9  883
1477469712.497:    605  67   9  883
1477469712.498:    650  67   9  883
1477469712.504:    675  67   9  883
1477469712.513:    669  67   9  883
1477469712.514:    634  67   9  883
1477469712.515:    580  67   9  883
1477469712.516:    527  67   9  883
1477469712.516:    494  67   9  883
1477469712.517:    485  67   9  883
1477469712.517:    486  67   9  883
1477469712.518:    483  67   9  883
1477469712.521:    481  67   9  883
1477469712.522:    490  67   9  883
1477469712.523:    508  67   9  883
1477469712.524:    521  67   9  883
1477469712.525:    510  67   9  883
1477469712.528:    474  67   9  883
1477469712.530:    430  67   9  883
1477469712.534:    396  67   9  883
1477469712.543:    383  67   9  883
1477469712.544:    387  67   9  883
1477469712.545:    400  67   9  883
1477469712.546:    406  67   9  883
1477469712.546:    388  67   9  883
1477469712.547:    343  67   9  883
1477469712.549:    295  67   9  883
1477469712.550:    272  67   9  883
1477469712.550:    283  67   9  883
1477469712.553:    307  67   9  883
1477469712.554:    322  67   9  883
1477469712.555:    329  67   9  883
1477469712.558:    350  67   9  883
1477469712.562:    389  67   9  883
1477469712.563:    421  67   9  883
1477469712.564:    407  67   9  883
1477469712.566:    345  67   9  883
1477469712.567:    265  67   9  883
1477469712.569:    212  67   9  883
1477469712.572:    203  67   9  883
1477469712.586:    226  67   9  883
1477469712.586:    250  67   9  883
1477469712.587:    261  67   9  883
1477469712.587:    264  67   9  883
1477469712.588:    273  67   9  883
1477469712.588:    287  67   9  883
1477469712.589:    298  67   9  883
1477469712.590:    287  67   9  883
1477469712.591:    250  67   9  883
1477469712.592:    207  67   9  883
1477469712.594:    187  67   9  883
1477469712.598:    197  67   9  883
1477469712.604:    217  67   9  883
1477469712.605:    212  67   9  883
1477469712.606:    172  67   9  883
1477469712.607:    111  67   9  883
1477469712.609:     60  67   9  883
1477469712.610:     26  67   9  883
1477469712.610:     -6  67   9  883
1477469712.611:    -46  67   9  883
1477469712.614:    -77  67   9  883
1477469712.619:    -72  67   9  883
1477469712.623:    -32  67   9  883
1477469712.623:     10  67   9  883
1477469712.624:     13  67   9  883
1477469712.624:    -30  67   9  883
1477469712.625:    -93  67   9  883
1477469712.630:   -141  67   9  883
1477469712.632:   -171  67   9  883
1477469712.632:   -190  67   9  883
1477469712.637:   -203  67   9  883
1477469712.639:   -199  67   9  883
1477469712.640:   -170  67   9  883
1477469712.640:   -117  67   9  883
1477469712.641:    -62  67   9  883
1477469712.642:    -26  67   9  883
1477469712.645:    -20  67   9  883
1477469712.646:    -43  67   9  883
1477469712.650:    -79  67   9  883
1477469712.651:   -103  67   9  883
1477469712.662:    -98  67   9  883
1477469712.663:    -68  67   9  883
1477469712.663:    -32  67   9  883
1477469712.664:     -7  67   9  883
1477469712.665:     12  67   9  883
1477469712.665:     39  67   9  883
1477469712.666:     81  67   9  883
1477469712.668:    128  67   9  883
1477469712.670:    164  67   9  883
1477469712.671:    185  67   9  883
1477469712.681:    204  67   9  883
1477469712.682:    240  67   9  883
1477469712.682:    294  67   9  883
1477469712.683:    352  67   9  883
1477469712.684:    392  67   9  883
1477469712.685:    400  67   9  883
1477469712.686:    375  67   9  883
1477469712.687:    333  67   9  883
1477469712.687:    291  67   9  883
1477469712.692:    264  67   9  883
1477469712.699:    258  67   9  883
1477469712.700:    270  67   9  883
1477469712.701:    288  67   9  883
1477469712.701:    302  67   9  883
1477469712.703:    304  67   9  883
1477469712.704:    289  67   9  883
1477469712.704:    263  67   9  883
1477469712.705:    241  67   9  883
1477469712.712:    236  67   9  883
1477469712.713:    248  67   9  883
1477469712.714:    263  67   9  883
1477469712.715:    268  67   9  883
1477469712.721:    261  67   9  883
1477469712.722:    259  67   9  883
1477469712.722:    274  67   9  883
1477469712.723:    289  67   9  883
1477469712.724:    276  67   9  883
1477469712.725:    222  67   9  883
1477469712.726:    149  67   9  883
1477469712.730:     92  67   9  883
1477469712.745:     81  67   9  883
1477469712.746:    112  67   9  883
1477469712.746:    160  67   9  883
1477469712.747:    195  67   9  883
1477469712.748:    208  67   9  883
1477469712.750:    202  67   9  883
1477469712.750:    175  67   9  883
1477469712.751:    107  67   9  883
1477469712.752:    -17  67   9  883
1477469712.753:   -181  67   9  883
1477469712.753:   -344  67   9  883
1477469712.754:   -472  67   9  883
1477469712.754:   -564  67   9  883
1477469712.759:   -651  67   9  883
1477469712.760:   -759  67   9  883
1477469712.761:   -912  67   9  883
1477469712.762:  -1129  67   9  883
1477469712.764:  -1438  67   9  883
1477469712.769:  -1863  67   9  883
1477469712.771:  -2422  67   9  883
1477469712.773:  -3107  67   9  883
1477469712.774:  -3863  67   9  883
1477469712.790:  -4584  67   9  883
1477469712.791:  -5154  67   9  883
1477469712.791:  -5482  67   9  883
1477469712.792:  -5509  67   9  883
1477469712.793:  -5164  67   9  883
1477469712.793:  -4351  67   9  883
1477469712.794:  -3035  67   9  883
1477469712.794:  -1359  67   9  883
1477469712.795:    388  67   9  883
1477469712.796:   1958  67   9  883
1477469712.796:   3282  67   9  883
1477469712.797:   4389  67   9  883
1477469712.800:   5233  67   9  883
1477469712.801:   5630  67   9  883
1477469712.809:   5443  67   9  883
1477469712.810:   4759  67   9  883
1477469712.811:   3867  67   9  883
1477469712.812:   3027  67   9  883
1477469712.812:   2320  67   9  883
1477469712.814:   1708  67   9  883
1477469712.815:   1191  67   9  883
1477469712.816:    838  67   9  883
1477469712.826:    694  67   9  883
1477469712.827:    696  67   9  883
1477469712.827:    713  67   9  883
1477469712.827:    658  67   9  883
1477469712.828:    535  67   9  883
1477469712.829:    390  67   9  883
1477469712.830:    250  67   9  883
1477469712.831:    115  67   9  883
1477469712.832:     -7  67   9  883
1477469712.835:    -99  67   9  883
1477469712.846:   -140  67   9  883
1477469712.847:   -130  67   9  883
1477469712.847:   -101  67   9  883
1477469712.849:    -86  67   9  883
1477469712.850:   -103  67   9  883
1477469712.851:   -147  67   9  883
1477469712.852:   -208  67   9  883
1477469712.853:   -274  67   9  883
1477469712.857:   -327  67   9  883
1477469712.859:   -350  67   9  883
1477469712.865:   -339  67   9  883
1477469712.865:   -309  67   9  883
1477469712.865:   -286  67   9  883
1477469712.866:   -290  67   9  883
1477469712.866:   -326  67   9  883
1477469712.868:   -393  67   9  883
1477469712.869:   -486  67   9  883
1477469712.871:   -588  67   9  883
1477469712.872:   -665  67   9  883
1477469712.873:   -688  67   9  883
1477469712.876:   -657  67   9  883
1477469712.878:   -600  67   9  883
1477469712.883:   -545  67   9  883
1477469712.883:   -503  67   9  883
1477469712.884:   -476  67   9  883
1477469712.886:   -466  67   9  883
1477469712.887:   -477  67   9  883
1477469712.892:   -493  67   9  883
1477469712.902:   -491  67   9  883
1477469712.903:   -463  67   9  883
1477469712.903:   -427  67   9  883
1477469712.903:   -399  67   9  883
1477469712.903:   -382  67   9  883
1477469712.904:   -373  67   9  883
1477469712.904:   -379  67   9  883
1477469712.906:   -409  67   9  883
1477469712.912:   -455  67   9  883
1477469712.912:   -489  67   9  883
1477469712.912:   -492  67   9  883
1477469712.913:   -473  67   9  883
1477469712.914:   -457  67   9  883
1477469712.917:   -445  67   9  883
1477469712.918:   -420  67   9  883
1477469712.923:   -387  67   9  883
1477469712.937:   -380  67   9  883
1477469712.938:   -423  67   9  883
1477469712.939:   -497  67   9  883
1477469712.940:   -551  67   9  883
1477469712.940:   -555  67   9  883
1477469712.941:   -529  67   9  883
1477469712.942:   -514  67   9  883
1477469712.942:   -519  67   9  883
1477469712.943:   -520  67   9  883
1477469712.944:   -502  67   9  883
1477469712.954:   -485  67   9  883
1477469712.955:   -502  67   9  883
1477469712.956:   -563  67   9  883
1477469712.957:   -643  67   9  883
1477469712.958:   -701  67   9  883
1477469712.958:   -719  67   9  883
1477469712.959:   -708  67   9  883
1477469712.959:   -683  67   9  883
1477469712.960:   -654  67   9  883
1477469712.961:   -629  67   9  883
1477469712.971:   -627  67   9  883
1477469712.972:   -656  67   9  883
1477469712.973:   -706  67   9  883
1477469712.974:   -757  67   9  883
1477469712.974:   -793  67   9  883
1477469712.975:   -819  67   9  883
1477469712.976:   -845  67   9  883
1477469712.976:   -872  67   9  883
1477469712.980:   -885  67   9  883
1477469712.981:   -883  67   9  883
1477469712.989:   -891  67   9  883
1477469712.990:   -933  67   9  883
1477469712.996:  -1001  67   9  883
1477469712.998:  -1067  67   9  883
1477469713.009:  -1107  67   9  883
1477469713.010:  -1126  67   9  883
1477469713.010:  -1136  67   9  883
1477469713.012:  -1139  67   9  883
1477469713.012:  -1119  67   9  883
1477469713.013:  -1078  67   9  883
1477469713.014:  -1047  67   9  883
1477469713.015:  -1058  67   9  883
1477469713.016:  -1109  67   9  883
1477469713.017:  -1172  67   9  883
1477469713.017:  -1220  67   9  883
1477469713.019:  -1246  67   9  883
1477469713.019:  -1261  67   9  883
1477469713.019:  -1273  67   9  883
1477469713.020:  -1279  67   9  883
1477469713.020:  -1274  67   9  883
1477469713.024:  -1272  67   9  883
1477469713.026:  -1290  67   9  883
1477469713.027:  -1332  67   9  883
1477469713.029:  -1387  67   9  883
1477469713.048:  -1443  67   9  883
1477469713.048:  -1487  67   9  883
1477469713.050:  -1512  67   9  883
1477469713.050:  -1511  67   9  883
1477469713.050:  -1481  67   9  883
1477469713.051:  -1428  67   9  883
1477469713.051:  -1382  67   9  883
1477469713.051:  -1368  67   9  883
1477469713.052:  -1385  67   9  883
1477469713.052:  -1401  67   9  883
1477469713.052:  -1387  67   9  883
1477469713.052:  -1333  67   9  883
1477469713.052:  -1247  67   9  883
1477469713.056:  -1136  67   9  883
1477469713.057:   -997  67   9  883
1477469713.058:   -828  67   9  883
1477469713.085:   -648  67   9  883
1477469713.087:   -486  67   9  883
1477469713.088:   -354  67   9  883
1477469713.090:   -244  67   9  883
1477469713.103:   -148  67   9  883
1477469713.104:    -57  67   9  883
1477469713.104:     36  67   9  883
1477469713.105:    147  67   9  883
1477469713.106:    284  67   9  883
1477469713.107:    433  67   9  883
1477469713.108:    559  67   9  883
1477469713.109:    643  67   9  883
1477469713.109:    706  67   9  883
1477469713.111:    784  67   9  883
1477469713.111:    880  67   9  883
1477469713.112:    966  67   9  883
1477469713.124:   1026  67   9  883
1477469713.125:   1095  67   9  883
1477469713.126:   1223  67   9  883
1477469713.127:   1412  67   9  883
1477469713.204:   1599  67   9  883
1477469713.204:   1711  67   9  883
1477469713.205:   1740  67   9  883
1477469713.205:   1753  67   9  883
1477469713.205:   1803  67   9  883
1477469713.205:   1883  67   9  883
1477469713.205:   1945  67   9  883
1477469713.206:   1974  67   9  883
1477469713.206:   1998  67   9  883
1477469713.206:   2050  67   9  883
1477469713.206:   2116  67   9  883
1477469713.206:   2154  67   9  883
1477469713.207:   2137  67   9  883
1477469713.207:   2086  67   9  883
1477469713.207:   2032  67   9  883
1477469713.207:   1986  67   9  883
1477469713.208:   1945  67   9  883
1477469713.208:   1917  67   9  883
1477469713.208:   1916  67   9  883
1477469713.208:   1953  67   9  883
1477469713.209:   2012  67   9  883
1477469713.209:   2063  67   9  883
1477469713.209:   2075  67   9  883
1477469713.209:   2039  67   9  883
1477469713.209:   1967  67   9  883
1477469713.210:   1888  67   9  883
1477469713.222:   1833  67   9  883
1477469713.222:   1819  67   9  883
1477469713.222:   1833  67   9  883
1477469713.222:   1854  67   9  883
1477469713.223:   1880  67   9  883
1477469713.224:   1917  67   9  883
1477469713.224:   1966  67   9  883
1477469713.225:   2006  67   9  883
1477469713.225:   2012  67   9  883
1477469713.225:   1979  67   9  883
1477469713.226:   1934  67   9  883
1477469713.226:   1911  67   9  883
1477469713.226:   1920  67   9  883
1477469713.227:   1939  67   9  883
1477469713.227:   1942  67   9  883
1477469713.227:   1915  67   9  883
1477469713.228:   1863  67   9  883
1477469713.229:   1794  67   9  883
1477469713.229:   1713  67   9  883
1477469713.232:   1619  67   9  883
1477469713.232:   1524  67   9  883
1477469713.232:   1457  67   9  883
1477469713.233:   1441  67   9  883
1477469713.233:   1472  67   9  883
1477469713.233:   1523  67   9  883
1477469713.234:   1561  67   9  883
1477469713.234:   1566  67   9  883
1477469713.234:   1538  67   9  883
1477469713.235:   1484  67   9  883
1477469713.235:   1415  67   9  883
1477469713.235:   1350  67   9  883
1477469713.236:   1308  67   9  883
1477469713.236:   1299  67   9  883
1477469713.236:   1315  67   9  883
1477469713.237:   1338  67   9  883
1477469713.239:   1354  67   9  883
1477469713.239:   1355  67   9  883
1477469713.239:   1335  67   9  883
1477469713.239:   1298  67   9  883
1477469713.239:   1248  67   9  883
1477469713.240:   1195  67   9  883
1477469713.240:   1156  67   9  883
1477469713.240:   1144  67   9  883
1477469713.240:   1162  67   9  883
1477469713.240:   1201  67   9  883
1477469713.241:   1237  67   9  883
1477469713.241:   1238  67   9  883
1477469713.243:   1190  67   9  883
1477469713.245:   1114  67   9  883
1477469713.251:   1046  67   9  883
1477469713.273:   1000  67   9  883
1477469713.273:    968  67   9  883
1477469713.273:    938  67   9  883
1477469713.274:    913  67   9  883
1477469713.274:    905  67   9  883
1477469713.274:    919  67   9  883
1477469713.274:    934  67   9  883
1477469713.274:    914  67   9  883
1477469713.275:    855  67   9  883
1477469713.275:    784  67   9  883
1477469713.275:    736  67   9  883
1477469713.275:    727  67   9  883
1477469713.276:    747  67   9  883
1477469713.276:    778  67   9  883
1477469713.276:    811  67   9  883
1477469713.279:    846  67   9  883
1477469713.281:    868  67   9  883
1477469713.283:    853  67   9  883
1477469713.285:    796  67   9  883
1477469713.286:    724  67   9  883
1477469713.290:    669  67   9  883
1477469713.291:    644  67   9  883
1477469713.292:    635  67   9  883
1477469713.294:    627  67   9  883
1477469713.296:    626  67   9  883
1477469713.296:    652  67   9  883
1477469713.313:    693  67   9  883
1477469713.314:    712  67   9  883
1477469713.315:    683  67   9  883
1477469713.316:    625  67   9  883
1477469713.316:    576  67   9  883
1477469713.317:    557  67   9  883
1477469713.318:    555  67   9  883
1477469713.318:    553  67   9  883
1477469713.319:    552  67   9  883
1477469713.320:    564  67   9  883
1477469713.322:    584  67   9  883
1477469713.323:    587  67   9  883
1477469713.332:    552  67   9  883
1477469713.332:    497  67   9  883
1477469713.332:    453  67   9  883
1477469713.332:    437  67   9  883
1477469713.332:    443  67   9  883
1477469713.333:    455  67   9  883
1477469713.336:    468  67   9  883
1477469713.337:    487  67   9  883
1477469713.341:    505  67   9  883
1477469713.342:    499  67   9  883
1477469713.348:    450  67   9  883
1477469713.353:    381  67   9  883
1477469713.354:    330  67   9  883
1477469713.356:    316  67   9  883
1477469713.357:    331  67   9  883
1477469713.358:    355  67   9  883
1477469713.358:    384  67   9  883
1477469713.359:    430  67   9  883
1477469713.359:    485  67   9  883
1477469713.363:    518  67   9  883
1477469713.363:    505  67   9  883
1477469713.365:    464  67   9  883
1477469713.390:    434  67   9  883
1477469713.391:    432  67   9  883
1477469713.391:    444  67   9  883
1477469713.391:    451  67   9  883
1477469713.391:    461  67   9  883
1477469713.391:    500  67   9  883
1477469713.392:    561  67   9  883
1477469713.392:    600  67   9  883
1477469713.392:    573  67   9  883
1477469713.392:    492  67   9  883
1477469713.407:    412  67   9  883
1477469713.408:    375  67   9  883
1477469713.412:    380  67   9  883
1477469713.412:    398  67   9  883
1477469713.412:    406  67   9  883
1477469713.413:    407  67   9  883
1477469713.413:    413  67   9  883
1477469713.413:    421  67   9  883
1477469713.413:    412  67   9  883
1477469713.413:    374  67   9  883
1477469713.413:    320  67   9  883
1477469713.414:    271  67   9  883
1477469713.414:    246  67   9  883
1477469713.414:    254  67   9  883
1477469713.416:    292  67   9  883
1477469713.417:    347  67   9  883
1477469713.419:    405  67   9  883
1477469713.420:    449  67   9  883
1477469713.422:    464  67   9  883
1477469713.423:    446  67   9  883
1477469713.426:    414  67   9  883
1477469713.428:    388  67   9  883
1477469713.432:    383  67   9  883
1477469713.433:    404  67   9  883
1477469713.434:    447  67   9  883
1477469713.435:    499  67   9  883
1477469713.458:    545  67   9  883
1477469713.459:    567  67   9  883
1477469713.459:    550  67   9  883
1477469713.459:    496  67   9  883
1477469713.459:    427  67   9  883
1477469713.459:    367  67   9  883
1477469713.460:    327  67   9  883
1477469713.460:    308  67   9  883
1477469713.460:    311  67   9  883
1477469713.460:    331  67   9  883
1477469713.461:    362  67   9  883
1477469713.461:    393  67   9  883
1477469713.461:    405  67   9  883
1477469713.465:    384  67   9  883
1477469713.468:    340  67   9  883
1477469713.468:    293  67   9  883
1477469713.469:    266  67   9  883
1477469713.471:    267  67   9  883
1477469713.472:    295  67   9  883
1477469713.474:    338  67   9  883
1477469713.477:    384  67   9  883
1477469713.481:    420  67   9  883
1477469713.482:    431  67   9  883
1477469713.483:    403  67   9  883
1477469713.500:    344  67   9  883
1477469713.500:    279  67   9  883
1477469713.501:    231  67   9  883
1477469713.501:    209  67   9  883
1477469713.501:    208  67   9  883
1477469713.501:    223  67   9  883
1477469713.502:    245  67   9  883
1477469713.502:    265  67   9  883
1477469713.502:    262  67   9  883
1477469713.506:    217  67   9  883
1477469713.506:    133  67   9  883
1477469713.509:     35  67   9  883
1477469713.511:    -53  67   9  883
1477469713.512:   -111  67   9  883
1477469713.514:   -128  67   9  883
1477469713.517:   -107  67   9  883
1477469713.517:    -61  67   9  883
1477469713.519:     -7  67   9  883
1477469713.522:     43  67   9  883
1477469713.522:     85  67   9  883
1477469713.523:    124  67   9  883
1477469713.528:    167  67   9  883
1477469713.552:    207  67   9  883
1477469713.554:    240  67   9  883
1477469713.556:    271  67   9  883
1477469713.557:    315  67   9  883
1477469713.559:    382  67   9  883
1477469713.559:    464  67   9  883
1477469713.560:    532  67   9  883
1477469713.561:    555  67   9  883
1477469713.561:    523  67   9  883
1477469713.562:    467  67   9  883
1477469713.564:    432  67   9  883
1477469713.564:    440  67   9  883
1477469713.578:    471  67   9  883
1477469713.579:    495  67   9  883
1477469713.579:    504  67   9  883
1477469713.580:    521  67   9  883
1477469713.581:    559  67   9  883
1477469713.581:    598  67   9  883
1477469713.582:    603  67   9  883
1477469713.583:    580  67   9  883
1477469713.584:    569  67   9  883
1477469713.584:    596  67   9  883
1477469713.585:    643  67   9  883
1477469713.585:    680  67   9  883
1477469713.597:    704  67   9  883
1477469713.597:    742  67   9  883
1477469713.598:    805  67   9  883
1477469713.598:    856  67   9  883
1477469713.600:    846  67   9  883
1477469713.601:    775  67   9  883
1477469713.601:    703  67   9  883
1477469713.601:    685  67   9  883
1477469713.602:    726  67   9  883
1477469713.602:    788  67   9  883
1477469713.602:    833  67   9  883
1477469713.602:    850  67   9  883
1477469713.602:    843  67   9  883
1477469713.603:    815  67   9  883
1477469713.603:    770  67   9  883
1477469713.605:    724  67   9  883
1477469713.615:    695  67   9  883
1477469713.615:    682  67   9  883
1477469713.615:    680  67   9  883
1477469713.615:    689  67   9  883
1477469713.616:    714  67   9  883
1477469713.617:    745  67   9  883
1477469713.619:    760  67   9  883
1477469713.619:    735  67   9  883
1477469713.622:    665  67   9  883
1477469713.624:    558  67   9  883
1477469713.628:    436  67   9  883
1477469713.629:    319  67   9  883
1477469713.639:    226  67   9  883
1477469713.640:    166  67   9  883
1477469713.641:    128  67   9  883
1477469713.642:     81  67   9  883
1477469713.642:     -9  67   9  883
1477469713.643:   -170  67   9  883
1477469713.643:   -423  67   9  883
1477469713.645:   -775  67   9  883
1477469713.646:  -1216  67   9  883
1477469713.652:  -1728  67   9  883
1477469713.657:  -2294  67   9  883
1477469713.658:  -2895  67   9  883
1477469713.659:  -3493  67   9  883
1477469713.659:  -4021  67   9  883
1477469713.660:  -4385  67   9  883
1477469713.660:  -4472  67   9  883
1477469713.661:  -4173  67   9  883
1477469713.664:  -3412  67   9  883
1477469713.676:  -2201  67   9  883
1477469713.676:   -683  67   9  883
1477469713.677:    921  67   9  883
1477469713.678:   2426  67   9  883
1477469713.679:   3749  67   9  883
1477469713.683:   4849  67   9  883
1477469713.694:   5632  67   9  883
1477469713.694:   5949  67   9  883
1477469713.695:   5725  67   9  883
1477469713.696:   5069  67   9  883
1477469713.696:   4239  67   9  883
1477469713.697:   3470  67   9  883
1477469713.697:   2853  67   9  883
1477469713.698:   2370  67   9  883
1477469713.699:   1989  67   9  883
1477469713.699:   1705  67   9  883
1477469713.700:   1516  67   9  883
1477469713.701:   1392  68   9  882
1477469713.712:   1288  68   9  882
1477469713.713:   1170  68   9  882
1477469713.714:   1032  68   9  882
1477469713.715:    884  68   9  882
1477469713.716:    737  68   9  882
1477469713.717:    614  68   9  882
1477469713.719:    531  68   9  882
1477469713.720:    488  68   9  882
1477469713.731:    470  68   9  882
1477469713.732:    461  68   9  882
1477469713.732:    447  68   9  882
1477469713.733:    418  68   9  882
1477469713.734:    363  68   9  882
1477469713.735:    285  68   9  882
1477469713.735:    204  68   9  882
1477469713.736:    155  68   9  882
1477469713.737:    163  68   9  882
1477469713.737:    211  68   9  882
1477469713.739:    259  68   9  882
1477469713.740:    274  68   9  882
1477469713.751:    252  68   9  882
1477469713.752:    208  68   9  882
1477469713.753:    162  68   9  882
1477469713.753:    119  68   9  882
1477469713.754:     79  68   9  882
1477469713.756:     48  68   9  882
1477469713.757:     38  68   9  882
1477469713.757:     63  68   9  882
1477469713.759:    119  68   9  882
1477469713.760:    192  68   9  882
1477469713.761:    253  68   9  882
1477469713.762:    269  68   9  882
1477469713.771:    230  68   9  882
1477469713.772:    161  68   9  882
1477469713.772:    109  68   9  882
1477469713.772:    108  68   9  882
1477469713.774:    145  68   9  882
1477469713.774:    179  68   9  882
1477469713.776:    188  68   9  882
1477469713.777:    187  68   9  882
1477469713.779:    205  68   9  882
1477469713.785:    244  68   9  882
1477469713.791:    270  68   9  882
1477469713.792:    258  68   9  882
1477469713.792:    218  68   9  882
1477469713.792:    185  68   9  882
1477469713.792:    186  68   9  882
1477469713.792:    219  68   9  882
1477469713.795:    263  68   9  882
1477469713.798:    297  68   9  882
1477469713.802:    309  68   9  882
1477469713.802:    291  68   9  882
1477469713.811:    237  68   9  882
1477469713.811:    163  68   9  882
1477469713.811:     95  68   9  882
1477469713.812:     51  68   9  882
1477469713.812:     31  68   9  882
1477469713.820:     21  68   9  882
1477469713.821:     11  68   9  882
1477469713.822:      4  68   9  882
1477469713.823:      4  68   9  882
1477469713.824:     11  68   9  882
1477469713.824:     14  68   9  882
1477469713.825:      5  68   9  882
1477469713.829:     -9  68   9  882
1477469713.830:    -24  68   9  882
1477469713.831:    -38  68   9  882
1477469713.832:    -49  68   9  882
1477469713.834:    -50  68   9  882
1477469713.837:    -40  68   9  882
1477469713.839:    -22  68   9  882
1477469713.841:    -18  68   9  882
1477469713.844:    -47  68   9  882
1477469713.844:   -101  68   9  882
1477469713.864:   -151  68   9  882
1477469713.864:   -173  68   9  882
1477469713.864:   -169  68   9  882
1477469713.864:   -163  68   9  882
1477469713.864:   -173  68   9  882
1477469713.865:   -194  68   9  882
1477469713.865:   -208  68   9  882
1477469713.865:   -210  68   9  882
1477469713.865:   -216  68   9  882
1477469713.865:   -240  68   9  882
1477469713.865:   -277  68   9  882
1477469713.868:   -310  68   9  882
1477469713.870:   -328  68   9  882
1477469713.873:   -337  68   9  882
1477469713.876:   -341  68   9  882
1477469713.877:   -338  68   9  882
1477469713.886:   -333  68   9  882
1477469713.886:   -345  68   9  882
1477469713.887:   -398  68   9  882
1477469713.887:   -488  68   9  882
1477469713.887:   -571  68   9  882
1477469713.891:   -605  68   9  882
1477469713.891:   -597  68   9  882
1477469713.892:   -583  68   9  882
1477469713.893:   -592  68   9  882
1477469713.895:   -612  68   9  882
1477469713.896:   -616  68   9  882
1477469713.903:   -608  68   9  882
1477469713.907:   -625  68   9  882
1477469713.907:   -694  68   9  882
1477469713.907:   -790  68   9  882
1477469713.907:   -865  68   9  882
1477469713.909:   -897  68   9  882
1477469713.912:   -906  68   9  882
1477469713.913:   -918  68   9  882
1477469713.917:   -936  68   9  882
1477469713.927:   -937  68   9  882
1477469713.927:   -915  68   9  882
1477469713.928:   -891  68   9  882
1477469713.929:   -894  68   9  882
1477469713.930:   -915  68   9  882
1477469713.931:   -915  68   9  882
1477469713.931:   -864  68   9  882
1477469713.932:   -770  68   9  882
1477469713.933:   -671  68   9  882
1477469713.935:   -597  68   9  882
1477469713.936:   -544  68   9  882
1477469713.939:   -486  68   9  882
1477469713.946:   -415  68   9  882
1477469713.946:   -344  68   9  882
1477469713.947:   -286  68   9  882
1477469713.948:   -224  68   9  882
1477469713.948:   -132  68   9  882
1477469713.950:      8  68   9  882
1477469713.951:    183  68   9  882
1477469713.957:    362  68   9  882
1477469713.957:    519  68   9  882
1477469713.960:    644  68   9  882
1477469713.962:    739  68   9  882
1477469713.962:    809  68   9  882
1477469713.966:    862  68   9  882
1477469713.966:    916  68   9  882
1477469713.969:    988  68   9  882
1477469713.969:   1084  68   9  882
1477469713.971:   1196  68   9  882
1477469713.976:   1307  68   9  882
1477469713.990:   1403  68   9  882
1477469713.991:   1474  68   9  882
1477469713.991:   1521  68   9  882
1477469713.992:   1546  68   9  882
1477469713.992:   1557  68   9  882
1477469713.992:   1570  68   9  882
1477469713.993:   1605  68   9  882
1477469713.994:   1663  68   9  882
1477469713.994:   1728  68   9  882
1477469713.994:   1778  68   9  882
1477469713.999:   1802  68   9  882
1477469714.000:   1800  68   9  882
1477469714.008:   1780  68   9  882
1477469714.098:   1742  68   9  882
1477469714.112:   1689  68   9  882
1477469714.112:   1638  68   9  882
1477469714.112:   1619  68   9  882
1477469714.112:   1641  68   9  882
1477469714.113:   1685  68   9  882
1477469714.113:   1722  68   9  882
1477469714.113:   1738  68   9  882
1477469714.113:   1741  68   9  882
1477469714.113:   1737  68   9  882
1477469714.114:   1709  68   9  882
1477469714.114:   1644  68   9  882
1477469714.114:   1563  68   9  882
1477469714.114:   1513  68   9  882
1477469714.114:   1526  68   9  882
1477469714.114:   1581  68   9  882
1477469714.114:   1630  68   9  882
1477469714.115:   1641  68   9  882
1477469714.115:   1617  68   9  882
1477469714.115:   1581  68   9  882
1477469714.115:   1539  68   9  882
1477469714.115:   1478  68   9  882
1477469714.116:   1396  68   9  882
1477469714.116:   1318  68   9  882
1477469714.116:   1273  68   9  882
1477469714.116:   1270  68   9  882
1477469714.116:   1293  68   9  882
1477469714.116:   1312  68   9  882
1477469714.116:   1312  68   9  882
1477469714.116:   1294  68   9  882
1477469714.117:   1262  68   9  882
1477469714.117:   1217  68   9  882
1477469714.117:   1160  68   9  882
1477469714.117:   1107  68   9  882
1477469714.117:   1078  68   9  882
1477469714.117:   1078  68   9  882
1477469714.117:   1087  68   9  882
1477469714.118:   1084  68   9  882
1477469714.118:   1062  68   9  882
1477469714.118:   1034  68   9  882
1477469714.118:   1008  68   9  882
1477469714.118:    974  68   9  882
1477469714.119:    919  68   9  882
1477469714.119:    854  68   9  882
1477469714.119:    806  68   9  882
1477469714.119:    796  68   9  882
1477469714.119:    816  68   9  882
1477469714.130:    837  68   9  882
1477469714.131:    840  68   9  882
1477469714.132:    817  68   9  882
1477469714.132:    777  68   9  882
1477469714.133:    727  68   9  882
1477469714.134:    674  68   9  882
1477469714.134:    628  68   9  882
1477469714.135:    596  68   9  882
1477469714.138:    569  68   9  882
1477469714.141:    541  68   9  882
1477469714.149:    518  68   9  882
1477469714.150:    508  68   9  882
1477469714.150:    511  68   9  882
1477469714.150:    510  68   9  882
1477469714.150:    486  68   9  882
1477469714.150:    443  68   9  882
1477469714.151:    403  68   9  882
1477469714.151:    393  68   9  882
1477469714.151:    413  68   9  882
1477469714.151:    440  68   9  882
1477469714.151:    452  68   9  882
1477469714.152:    446  68   9  882
1477469714.152:    439  68   9  882
1477469714.152:    443  68   9  882
1477469714.152:    446  68   9  882
1477469714.152:    431  68   9  882
1477469714.152:    403  68   9  882
1477469714.153:    382  68   9  882
1477469714.153:    386  68   9  882
1477469714.153:    404  68   9  882
1477469714.154:    409  68   9  882
1477469714.156:    393  68   9  882
1477469714.156:    373  68   9  882
1477469714.158:    367  68   9  882
1477469714.159:    365  68   9  882
1477469714.160:    342  68   9  882
1477469714.168:    301  68   9  882
1477469714.168:    274  68   9  882
1477469714.176:    286  68   9  882
1477469714.176:    320  68   9  882
1477469714.176:    345  68   9  882
1477469714.176:    351  68   9  882
1477469714.176:    358  68   9  882
1477469714.177:    378  68   9  882
1477469714.183:    388  68   9  882
1477469714.183:    363  68   9  882
1477469714.183:    309  68   9  882
1477469714.184:    267  68   9  882
1477469714.189:    264  68   9  882
1477469714.189:    288  68   9  882
1477469714.198:    301  68   9  882
1477469714.199:    291  68   9  882
1477469714.218:    279  68   9  882
1477469714.219:    289  68   9  882
1477469714.219:    322  68   9  882
1477469714.219:    347  68   9  882
1477469714.220:    338  68   9  882
1477469714.220:    296  68   9  882
1477469714.220:    249  68   9  882
1477469714.220:    226  68   9  882
1477469714.221:    230  68   9  882
1477469714.221:    242  68   9  882
1477469714.221:    238  68   9  882
1477469714.221:    218  68   9  882
1477469714.222:    203  68   9  882
1477469714.223:    203  68   9  882
1477469714.223:    201  68   9  882
1477469714.225:    179  68   9  882
1477469714.227:    146  68   9  882
1477469714.228:    128  68   9  882
1477469714.249:    139  68   9  882
1477469714.250:    164  68   9  882
1477469714.250:    176  68   9  882
1477469714.250:    170  68   9  882
1477469714.250:    162  68   9  882
1477469714.251:    166  68   9  882
1477469714.251:    170  68   9  882
1477469714.251:    160  68   9  882
1477469714.251:    137  68   9  882
1477469714.251:    115  68   9  882
1477469714.252:    107  68   9  882
1477469714.254:    113  68   9  882
1477469714.254:    124  68   9  882
1477469714.256:    133  68   9  882
1477469714.258:    139  68   9  882
1477469714.260:    137  68   9  882
1477469714.262:    126  68   9  882
1477469714.263:    117  68   9  882
1477469714.268:    121  68   9  882
1477469714.269:    136  68   9  882
1477469714.282:    148  68   9  882
1477469714.283:    151  68   9  882
1477469714.284:    150  68   9  882
1477469714.284:    153  68   9  882
1477469714.285:    158  68   9  882
1477469714.286:    157  68   9  882
1477469714.286:    145  68   9  882
1477469714.287:    128  68   9  882
1477469714.288:    119  68   9  882
1477469714.290:    123  68   9  882
1477469714.300:    136  68   9  882
1477469714.301:    153  68   9  882
1477469714.301:    172  68   9  882
1477469714.302:    194  68   9  882
1477469714.304:    217  68   9  882
1477469714.306:    230  68   9  882
1477469714.307:    219  68   9  882
1477469714.308:    180  68   9  882
1477469714.309:    135  68   9  882
1477469714.309:    111  68   9  882
1477469714.309:    112  68   9  882
1477469714.311:    115  68   9  882
1477469714.322:     93  68   9  882
1477469714.323:     51  68   9  882
1477469714.324:     24  68   9  882
1477469714.324:     36  68   9  882
1477469714.326:     71  68   9  882
1477469714.326:     89  68   9  882
1477469714.327:     73  68   9  882
1477469714.329:     41  68   9  882
1477469714.340:     21  68   9  882
1477469714.341:     25  68   9  882
1477469714.342:     36  68   9  882
1477469714.342:     38  68   9  882
1477469714.343:     25  68   9  882
1477469714.343:      2  68   9  882
1477469714.366:    -32  68   9  882
1477469714.367:    -75  68   9  882
1477469714.389:   -118  68   9  882
1477469714.390:   -147  68   9  882
1477469714.391:   -159  68   9  882
1477469714.391:   -169  68   9  882
1477469714.392:   -189  68   9  882
1477469714.393:   -217  68   9  882
1477469714.393:   -234  68   9  882
1477469714.394:   -232  68   9  882
1477469714.394:   -228  68   9  882
1477469714.395:   -249  68   9  882
1477469714.396:   -297  68   9  882
1477469714.396:   -347  68   9  882
1477469714.397:   -372  68   9  882
1477469714.398:   -371  68   9  882
1477469714.400:   -371  68   9  882
1477469714.400:   -389  68   9  882
1477469714.412:   -414  68   9  882
1477469714.413:   -416  68   9  882
1477469714.414:   -393  68   9  882
1477469714.415:   -370  68   9  882
1477469714.415:   -379  68   9  882
1477469714.415:   -419  68   9  882
1477469714.417:   -461  68   9  882
1477469714.418:   -479  68   9  882
1477469714.419:   -476  68   9  882
1477469714.419:   -467  68   9  882
1477469714.432:   -463  68   9  882
1477469714.433:   -455  68   9  882
1477469714.434:   -434  68   9  882
1477469714.434:   -401  68   9  882
1477469714.435:   -364  68   9  882
1477469714.435:   -327  68   9  882
1477469714.436:   -293  68   9  882
1477469714.437:   -266  68   9  882
1477469714.437:   -249  68   9  882
1477469714.438:   -238  68   9  882
1477469714.439:   -227  68   9  882
1477469714.439:   -210  68   9  882
1477469714.454:   -199  68   9  882
1477469714.455:   -208  68   9  882
1477469714.456:   -237  68   9  882
1477469714.456:   -261  68   9  882
1477469714.457:   -254  68   9  882
1477469714.458:   -216  68   9  882
1477469714.458:   -175  68   9  882
1477469714.459:   -154  68   9  882
1477469714.460:   -150  68   9  882
1477469714.460:   -133  68   9  882
1477469714.461:    -86  68   9  882
1477469714.462:    -23  68   9  882
1477469714.475:     20  68   9  882
1477469714.476:     25  68   9  882
1477469714.477:      9  68   9  882
1477469714.479:     -2  68   9  882
1477469714.481:      6  68   9  882
1477469714.482:     16  68   9  882
1477469714.483:     12  68   9  882
1477469714.484:     -7  68   9  882
1477469714.496:    -29  68   9  882
1477469714.497:    -45  68   9  882
1477469714.498:    -62  68   9  882
1477469714.500:    -83  68   9  882
1477469714.500:   -100  68   9  882
1477469714.501:   -105  68   9  882
1477469714.501:    -98  68   9  882
1477469714.501:    -89  68   9  882
1477469714.502:    -82  68   9  882
1477469714.502:    -70  68   9  882
1477469714.503:    -52  68   9  882
1477469714.503:    -45  68   9  882
1477469714.516:    -65  68   9  882
1477469714.516:   -104  68   9  882
1477469714.517:   -132  68   9  882
1477469714.517:   -138  68   9  882
1477469714.518:   -145  68   9  882
1477469714.519:   -181  68   9  882
1477469714.520:   -230  68   9  882
1477469714.520:   -251  68   9  882
1477469714.521:   -234  68   9  882
1477469714.523:   -234  68   9  882
1477469714.535:   -315  68   9  882
1477469714.536:   -473  68   9  882
1477469714.537:   -633  68   9  882
1477469714.537:   -734  68   9  882
1477469714.540:   -793  68   9  882
1477469714.541:   -884  68   9  882
1477469714.542:  -1055  68   9  882
1477469714.544:  -1293  68   9  882
1477469714.545:  -1564  68   9  882
1477469714.545:  -1873  68   9  882
1477469714.548:  -2274  68   9  882
1477469714.549:  -2819  68   9  882
1477469714.549:  -3498  68   9  882
1477469714.549:  -4225  68   9  882
1477469714.550:  -4874  68   9  882
1477469714.551:  -5335  68   9  882
1477469714.551:  -5542  68   9  882
1477469714.552:  -5436  68   9  882
1477469714.552:  -4933  68   9  882
1477469714.552:  -3957  68   9  882
1477469714.553:  -2552  68   9  882
1477469714.553:   -927  68   9  882
1477469714.553:    653  68   9  882
1477469714.554:   2026  68   9  882
1477469714.556:   3181  68   9  882
1477469714.556:   4132  68   9  882
1477469714.573:   4779  68   9  882
1477469714.573:   4960  68   9  882
1477469714.573:   4623  68   9  882
1477469714.573:   3927  68   9  882
1477469714.573:   3129  68   9  882
1477469714.573:   2408  68   9  882
1477469714.574:   1798  68   9  882
1477469714.574:   1279  68   9  882
1477469714.574:    865  68   9  882
1477469714.574:    599  68   9  882
1477469714.574:    487  68   9  882
1477469714.575:    481  68   9  882
1477469714.576:    511  68   9  882
1477469714.579:    530  68   9  881
1477469714.583:    509  68   9  881
1477469714.583:    429  68   9  881
1477469714.584:    295  68   9  881
1477469714.586:    140  68   9  881
1477469714.587:      3  68   9  881
1477469714.589:    -92  68   9  881
1477469714.592:   -141  68   9  881
1477469714.597:   -146  68   9  881
1477469714.623:   -124  68   9  881
1477469714.624:   -100  68   9  881
1477469714.624:   -103  68   9  881
1477469714.624:   -139  68   9  881
1477469714.624:   -190  68   9  881
1477469714.624:   -228  68   9  881
1477469714.624:   -247  68   9  881
1477469714.625:   -257  68   9  881
1477469714.625:   -257  68   9  881
1477469714.625:   -240  68   9  881
1477469714.625:   -206  68   9  881
1477469714.625:   -172  68   9  881
1477469714.625:   -172  68   9  881
1477469714.626:   -217  68   9  881
1477469714.626:   -289  68   9  881
1477469714.626:   -352  68   9  881
1477469714.627:   -386  68   9  881
1477469714.629:   -393  68   9  881
1477469714.632:   -390  68   9  881
1477469714.634:   -381  68   9  881
1477469714.640:   -361  68   9  881
1477469714.640:   -326  68   9  881
1477469714.648:   -286  68   9  881
1477469714.648:   -258  68   9  881
1477469714.648:   -253  68   9  881
1477469714.649:   -261  68   9  881
1477469714.649:   -265  68   9  881
1477469714.649:   -256  68   9  881
1477469714.652:   -236  68   9  881
1477469714.652:   -215  68   9  881
1477469714.657:   -203  68   9  881
1477469714.657:   -205  68   9  881
1477469714.659:   -219  68   9  881
1477469714.662:   -240  68   9  881
1477469714.670:   -259  68   9  881
1477469714.671:   -272  68   9  881
1477469714.671:   -281  68   9  881
1477469714.671:   -293  68   9  881
1477469714.671:   -305  68   9  881
1477469714.673:   -313  68   9  881
1477469714.676:   -320  68   9  881
1477469714.676:   -330  68   9  881
1477469714.680:   -350  68   9  881
1477469714.682:   -376  68   9  881
1477469714.691:   -404  68   9  881
1477469714.691:   -437  68   9  881
1477469714.691:   -474  68   9  881
1477469714.691:   -509  68   9  881
1477469714.692:   -529  68   9  881
1477469714.693:   -532  68   9  881
1477469714.694:   -533  68   9  881
1477469714.700:   -547  68   9  881
1477469714.710:   -567  68   9  881
1477469714.711:   -575  68   9  881
1477469714.712:   -570  68   9  881
1477469714.713:   -569  68   9  881
1477469714.713:   -588  68   9  881
1477469714.714:   -619  68   9  881
1477469714.718:   -640  68   9  881
1477469714.720:   -645  68   9  881
1477469714.729:   -651  68   9  881
1477469714.731:   -671  68   9  881
1477469714.733:   -693  68   9  881
1477469714.734:   -700  68   9  881
1477469714.735:   -693  68   9  881
1477469714.735:   -693  68   9  881
1477469714.736:   -713  68   9  881
1477469714.738:   -742  68   9  881
1477469714.748:   -760  68   9  881
1477469714.749:   -766  68   9  881
1477469714.749:   -781  68   9  881
1477469714.750:   -815  68   9  881
1477469714.750:   -855  68   9  881
1477469714.751:   -881  68   9  881
1477469714.751:   -897  68   9  881
1477469714.752:   -923  68   9  881
1477469714.752:   -969  68   9  881
1477469714.752:  -1014  68   9  881
1477469714.753:  -1037  68   9  881
1477469714.753:  -1038  68   9  881
1477469714.754:  -1037  68   9  881
1477469714.757:  -1048  68   9  881
1477469714.758:  -1062  68   9  881
1477469714.759:  -1065  68   9  881
1477469714.760:  -1069  68   9  881
1477469714.762:  -1099  68   9  881
1477469714.766:  -1164  68   9  881
1477469714.766:  -1240  68   9  881
1477469714.782:  -1296  68   9  881
1477469714.782:  -1325  68   9  881
1477469714.782:  -1346  68   9  881
1477469714.782:  -1377  68   9  881
1477469714.782:  -1411  68   9  881
1477469714.783:  -1424  68   9  881
1477469714.783:  -1409  68   9  881
1477469714.783:  -1383  68   9  881
1477469714.783:  -1369  68   9  881
1477469714.791:  -1371  68   9  881
1477469714.791:  -1377  68   9  881
1477469714.791:  -1378  68   9  881
1477469714.793:  -1374  68   9  881
1477469714.794:  -1373  68   9  881
1477469714.805:  -1377  68   9  881
1477469714.805:  -1378  68   9  881
1477469714.805:  -1369  68   9  881
1477469714.805:  -1351  68   9  881
1477469714.806:  -1325  68   9  881
1477469714.806:  -1286  68   9  881
1477469714.807:  -1225  68   9  881
1477469714.812:  -1142  68   9  881
1477469714.812:  -1044  68   9  881
1477469714.813:   -942  68   9  881
1477469714.816:   -848  68   9  881
1477469714.820:   -759  68   9  881
1477469714.821:   -670  68   9  881
1477469714.823:   -575  68   9  881
1477469714.823:   -475  68   9  881
1477469714.824:   -374  68   9  881
1477469714.827:   -276  68   9  881
1477469714.830:   -173  68   9  881
1477469714.840:    -57  68   9  881
1477469714.840:     83  68   9  881
1477469714.841:    237  68   9  881
1477469714.841:    383  68   9  881
1477469714.841:    501  68   9  881
1477469714.842:    587  68   9  881
1477469714.844:    659  68   9  881
1477469714.848:    737  68   9  881
1477469714.859:    824  68   9  881
1477469714.860:    909  68   9  881
1477469714.861:    976  68   9  881
1477469714.862:   1023  68   9  881
1477469714.862:   1063  68   9  881
1477469714.863:   1107  68   9  881
1477469714.864:   1160  68   9  881
1477469714.864:   1208  68   9  881
1477469714.865:   1235  68   9  881
1477469714.866:   1240  68   9  881
1477469714.866:   1236  68   9  881
1477469714.868:   1243  68   9  881
1477469714.878:   1262  68   9  881
1477469714.949:   1275  68   9  881
1477469714.950:   1272  68   9  881
1477469714.950:   1264  68   9  881
1477469714.950:   1278  68   9  881
1477469714.951:   1314  68   9  881
1477469714.951:   1342  68   9  881
1477469714.951:   1334  68   9  881
1477469714.952:   1298  68   9  881
1477469714.952:   1271  68   9  881
1477469714.952:   1273  68   9  881
1477469714.952:   1283  68   9  881
1477469714.953:   1267  68   9  881
1477469714.953:   1222  68   9  881
1477469714.953:   1176  68   9  881
1477469714.953:   1156  68   9  881
1477469714.953:   1154  68   9  881
1477469714.953:   1142  68   9  881
1477469714.954:   1111  68   9  881
1477469714.954:   1075  68   9  881
1477469714.954:   1058  68   9  881
1477469714.954:   1064  68   9  881
1477469714.954:   1085  68   9  881
1477469714.955:   1109  68   9  881
1477469714.955:   1124  68   9  881
1477469714.955:   1121  68   9  881
1477469714.955:   1090  68   9  881
1477469714.955:   1042  68   9  881
1477469714.955:    995  68   9  881
1477469714.955:    958  68   9  881
1477469714.956:    923  68   9  881
1477469714.956:    881  68   9  881
1477469714.956:    840  68   9  881
1477469714.956:    820  68   9  881
1477469714.956:    826  68   9  881
1477469714.956:    838  68   9  881
1477469714.956:    838  68   9  881
1477469714.957:    828  68   9  881
1477469714.957:    827  68   9  881
1477469714.957:    831  68   9  881
1477469714.957:    816  68   9  881
1477469714.957:    772  68   9  881
1477469714.957:    723  68   9  881
1477469714.958:    703  68   9  881
1477469714.958:    711  68   9  881
1477469714.958:    712  68   9  881
1477469714.962:    679  68   9  881
1477469714.962:    630  68   9  881
1477469714.971:    609  68   9  881
1477469714.971:    625  68   9  881
1477469714.971:    643  68   9  881
1477469714.971:    630  68   9  881
1477469714.972:    592  68   9  881
1477469714.975:    564  68   9  881
1477469714.978:    562  68   9  881
1477469714.979:    567  68   9  881
1477469714.980:    547  68   9  881
1477469714.982:    494  68   9  881
1477469714.985:    431  68   9  881
1477469714.987:    386  68   9  881
1477469714.990:    367  68   9  881
1477469714.990:    366  68   9  881
1477469715.012:    366  68   9  881
1477469715.012:    356  68   9  881
1477469715.012:    337  68   9  881
1477469715.012:    324  68   9  881
1477469715.013:    322  68   9  881
1477469715.013:    327  68   9  881
1477469715.013:    325  68   9  881
1477469715.013:    310  68   9  881
1477469715.013:    293  68   9  881
1477469715.013:    285  68   9  881
1477469715.013:    286  68   9  881
1477469715.015:    284  68   9  881
1477469715.018:    277  68   9  881
1477469715.018:    280  68   9  881
1477469715.023:    302  68   9  881
1477469715.024:    325  68   9  881
1477469715.025:    321  68   9  881
1477469715.025:    290  68   9  881
1477469715.027:    264  68   9  881
1477469715.031:    268  68   9  881
1477469715.032:    291  68   9  881
1477469715.035:    294  68   9  881
1477469715.036:    261  68   9  881
1477469715.037:    226  68   9  881
1477469715.063:    226  68   9  881
1477469715.063:    257  68   9  881
1477469715.064:    272  68   9  881
1477469715.064:    244  68   9  881
1477469715.064:    200  68   9  881
1477469715.065:    187  68   9  881
1477469715.065:    218  68   9  881
1477469715.066:    254  68   9  881
1477469715.066:    255  68   9  881
1477469715.066:    226  68   9  881
1477469715.066:    208  68   9  881
1477469715.066:    223  68   9  881
1477469715.067:    251  68   9  881
1477469715.067:    262  68   9  881
1477469715.067:    252  68   9  881
1477469715.071:    238  68   9  881
1477469715.082:    238  68   9  881
1477469715.083:    248  68   9  881
1477469715.084:    254  68   9  881
1477469715.084:    246  68   9  881
1477469715.084:    231  68   9  881
1477469715.084:    217  68   9  881
1477469715.086:    205  68   9  881
1477469715.087:    195  68   9  881
1477469715.087:    185  68   9  881
1477469715.088:    173  68   9  881
1477469715.090:    164  68   9  881
1477469715.095:    169  68   9  881
1477469715.096:    194  68   9  881
1477469715.098:    224  68   9  881
1477469715.101:    235  68   9  881
1477469715.102:    219  68   9  881
1477469715.116:    198  68   9  881
1477469715.116:    198  68   9  881
1477469715.116:    219  68   9  881
1477469715.117:    234  68   9  881
1477469715.117:    223  68   9  881
1477469715.118:    202  68   9  881
1477469715.118:    202  68   9  881
1477469715.119:    231  68   9  881
1477469715.150:    261  68   9  881
1477469715.150:    265  68   9  881
1477469715.150:    246  68   9  881
1477469715.151:    229  68   9  881
1477469715.151:    229  68   9  881
1477469715.151:    231  68   9  881
1477469715.151:    214  68   9  881
1477469715.152:    182  68   9  881
1477469715.153:    161  68   9  881
1477469715.156:    168  68   9  881
1477469715.176:    191  68   9  881
1477469715.176:    208  68   9  881
1477469715.176:    205  68   9  881
1477469715.176:    192  68   9  881
1477469715.176:    183  68   9  881
1477469715.177:    188  68   9  881
1477469715.177:    203  68   9  881
1477469715.177:    216  68   9  881
1477469715.178:    216  68   9  881
1477469715.179:    197  68   9  881
1477469715.180:    171  68   9  881
1477469715.181:    154  68   9  881
1477469715.181:    158  68   9  881
1477469715.182:    169  68   9  881
1477469715.183:    161  68   9  881
1477469715.184:    125  68   9  881
1477469715.184:     87  68   9  881
1477469715.185:     88  68   9  881
1477469715.197:    140  68   9  881
1477469715.198:    208  68   9  881
1477469715.199:    251  68   9  881
1477469715.200:    259  68   9  881
1477469715.200:    255  68   9  881
1477469715.201:    259  68   9  881
1477469715.202:    263  68   9  881
1477469715.202:    240  68   9  881
1477469715.203:    187  68   9  881
1477469715.204:    133  68   9  881
1477469715.216:    105  68   9  881
1477469715.216:     99  68   9  881
1477469715.217:     91  68   9  881
1477469715.217:     76  68   9  881
1477469715.218:     76  68   9  881
1477469715.218:    108  68   9  881
1477469715.219:    154  68   9  881
1477469715.219:    180  68   9  881
1477469715.220:    173  68   9  881
1477469715.220:    155  68   9  881
1477469715.220:    152  68   9  881
1477469715.222:    164  68   9  881
1477469715.222:    166  68   9  881
1477469715.223:    152  68   9  881
1477469715.223:    134  68   9  881
1477469715.224:    127  68   9  881
1477469715.225:    130  68   9  881
1477469715.228:    130  68   9  881
1477469715.240:    128  68   9  881
1477469715.240:    129  68   9  881
1477469715.241:    130  68   9  881
1477469715.242:    114  68   9  881
1477469715.242:     76  68   9  881
1477469715.243:     36  68   9  881
1477469715.244:     19  68   9  881
1477469715.244:     24  68   9  881
1477469715.245:     16  68   9  881
1477469715.246:    -31  68   9  881
1477469715.248:   -101  68   9  881
1477469715.249:   -153  68   9  881
1477469715.258:   -160  68   9  881
1477469715.258:   -139  68   9  881
1477469715.259:   -133  68   9  881
1477469715.259:   -161  68   9  881
1477469715.259:   -204  68   9  881
1477469715.261:   -230  68   9  881
1477469715.262:   -226  68   9  881
1477469715.269:   -205  68   9  881
1477469715.276:   -188  68   9  881
1477469715.277:   -177  68   9  881
1477469715.277:   -160  68   9  881
1477469715.278:   -129  68   9  881
1477469715.278:    -92  68   9  881
1477469715.278:    -62  68   9  881
1477469715.283:    -45  68   9  881
1477469715.284:    -29  68   9  881
1477469715.295:      1  68   9  881
1477469715.296:     46  68   9  881
1477469715.299:     89  68   9  881
1477469715.300:    108  68   9  881
1477469715.300:    106  68   9  881
1477469715.301:    109  68   9  881
1477469715.302:    143  68   9  881
1477469715.302:    204  68   9  881
1477469715.314:    258  68   9  881
1477469715.315:    276  68   9  881
1477469715.316:    259  68   9  881
1477469715.317:    237  68   9  881
1477469715.317:    234  68   9  881
1477469715.318:    245  68   9  881
1477469715.319:    256  68   9  881
1477469715.319:    262  68   9  881
1477469715.320:    277  68   9  881
1477469715.321:    307  68   9  881
1477469715.333:    343  68   9  881
1477469715.333:    369  68   9  881
1477469715.334:    376  68   9  881
1477469715.335:    373  68   9  881
1477469715.335:    371  68   9  881
1477469715.336:    368  68   9  881
1477469715.337:    355  68   9  881
1477469715.337:    333  68   9  881
1477469715.339:    311  68   9  881
1477469715.340:    301  68   9  881
1477469715.341:    301  68   9  881
1477469715.342:    299  68   9  881
1477469715.343:    288  68   9  881
1477469715.349:    268  68   9  881
1477469715.350:    252  68   9  881
1477469715.351:    243  68   9  881
1477469715.352:    233  68   9  881
1477469715.352:    216  68   9  881
1477469715.356:    196  68   9  881
1477469715.358:    186  68   9  881
1477469715.359:    197  68   9  881
1477469715.360:    219  68   9  881
1477469715.361:    232  68   9  881
1477469715.363:    223  68   9  881
1477469715.365:    203  68   9  881
1477469715.380:    183  68   9  881
1477469715.387:    159  68   9  881
1477469715.389:    104  68   9  881
1477469715.389:      7  68   9  881
1477469715.390:   -117  68   9  881
1477469715.391:   -240  68   9  881
1477469715.391:   -360  68   9  881
1477469715.392:   -491  68   9  881
1477469715.392:   -644  68   9  881
1477469715.393:   -806  68   9  881
1477469715.394:   -971  68   9  881
1477469715.394:  -1170  68   9  881
1477469715.395:  -1457  68   9  881
1477469715.406:  -1866  68   9  881
1477469715.407:  -2393  68   9  881
1477469715.408:  -3013  68   9  881
1477469715.409:  -3692  68   9  881
1477469715.410:  -4368  68   9  881
1477469715.412:  -4945  68   9  881
1477469715.412:  -5309  68   9  881
1477469715.413:  -5353  68   9  881
1477469715.413:  -4987  68   9  881
1477469715.414:  -4139  68   9  881
1477469715.415:  -2816  68   9  881
1477469715.416:  -1168  68   9  881
1477469715.420:    547  68   9  881
1477469715.420:   2103  68   9  881
1477469715.421:   3409  68   9  881
1477469715.422:   4460  68   9  881
1477469715.439:   5199  68   9  881
1477469715.440:   5490  68   9  881
1477469715.441:   5252  68   9  881
1477469715.441:   4590  68   9  881
1477469715.442:   3752  68   9  881
1477469715.443:   2950  68   9  881
1477469715.443:   2257  68   9  881
1477469715.444:   1660  68   9  881
1477469715.446:   1174  68   9  881
1477469715.448:    855  68   9  881
1477469715.449:    723  68   9  881
1477469715.449:    715  68   9  881
1477469715.449:    730  68   9  881
1477469715.450:    710  68   9  881
1477469715.451:    652  68   9  881
1477469715.453:    575  68   9  880
1477469715.456:    485  68   9  880
1477469715.462:    381  68   9  880
1477469715.467:    267  68   9  880
1477469715.468:    155  68   9  880
1477469715.470:     61  68   9  880
1477469715.471:      9  68   9  880
1477469715.472:     11  68   9  880
1477469715.473:     56  68   9  880
1477469715.474:     98  68   9  880
1477469715.475:     91  68   9  880
1477469715.475:     22  68   9  880
1477469715.479:    -75  68   9  880
1477469715.479:   -149  68   9  880
1477469715.481:   -180  68   9  880
1477469715.483:   -192  68   9  880
1477469715.484:   -212  68   9  880
1477469715.487:   -240  68   9  880
1477469715.488:   -253  68   9  880
1477469715.493:   -241  68   9  880
1477469715.493:   -226  68   9  880
1477469715.502:   -236  68   9  880
1477469715.502:   -271  68   9  880
1477469715.502:   -304  68   9  880
1477469715.503:   -313  68   9  880
1477469715.503:   -304  68   9  880
1477469715.506:   -295  68   9  880
1477469715.506:   -295  68   9  880
1477469715.508:   -296  68   9  880
1477469715.509:   -293  68   9  880
1477469715.511:   -294  68   9  880
1477469715.523:   -301  68   9  880
1477469715.524:   -307  68   9  880
1477469715.525:   -295  68   9  880
1477469715.525:   -264  68   9  880
1477469715.526:   -235  68   9  880
1477469715.526:   -226  68   9  880
1477469715.527:   -234  68   9  880
1477469715.528:   -240  68   9  880
1477469715.529:   -227  68   9  880
1477469715.533:   -197  68   9  880
1477469715.545:   -174  68   9  880
1477469715.546:   -180  68   9  880
1477469715.547:   -221  68   9  880
1477469715.553:   -275  68   9  880
1477469715.553:   -312  68   9  880
1477469715.554:   -317  68   9  880
1477469715.554:   -313  68   9  880
1477469715.555:   -336  68   9  880
1477469715.570:   -394  68   9  880
1477469715.571:   -461  68   9  880
1477469715.571:   -496  68   9  880
1477469715.571:   -489  68   9  880
1477469715.571:   -463  68   9  880
1477469715.572:   -450  68   9  880
1477469715.572:   -458  68   9  880
1477469715.572:   -473  68   9  880
1477469715.573:   -477  68   9  880
1477469715.573:   -470  68   9  880
1477469715.573:   -462  68   9  880
1477469715.573:   -464  68   9  880
1477469715.574:   -478  68   9  880
1477469715.575:   -501  68   9  880
1477469715.579:   -524  68   9  880
1477469715.579:   -542  68   9  880
1477469715.601:   -558  68   9  880
1477469715.602:   -582  68   9  880
1477469715.602:   -609  68   9  880
1477469715.602:   -631  68   9  880
1477469715.603:   -642  68   9  880
1477469715.603:   -652  68   9  880
1477469715.603:   -671  68   9  880
1477469715.603:   -695  68   9  880
1477469715.604:   -711  68   9  880
1477469715.604:   -715  68   9  880
1477469715.605:   -720  68   9  880
1477469715.606:   -742  68   9  880
1477469715.607:   -777  68   9  880
1477469715.608:   -807  68   9  880
1477469715.615:   -826  68   9  880
1477469715.616:   -851  68   9  880
1477469715.619:   -894  68   9  880
1477469715.619:   -948  68   9  880
1477469715.633:   -984  68   9  880
1477469715.644:   -994  68   9  880
1477469715.645:  -1000  68   9  880
1477469715.647:  -1033  68   9  880
1477469715.657:  -1093  68   9  880
1477469715.657:  -1149  68   9  880
1477469715.658:  -1173  68   9  880
1477469715.658:  -1175  68   9  880
1477469715.658:  -1185  68   9  880
1477469715.658:  -1220  68   9  880
1477469715.658:  -1266  68   9  880
1477469715.658:  -1300  68   9  880
1477469715.659:  -1315  68   9  880
1477469715.659:  -1332  68   9  880
1477469715.659:  -1367  68   9  880
1477469715.659:  -1410  68   9  880
1477469715.659:  -1444  68   9  880
1477469715.659:  -1460  68   9  880
1477469715.659:  -1469  68   9  880
1477469715.659:  -1486  68   9  880
1477469715.660:  -1509  68   9  880
1477469715.660:  -1522  68   9  880
1477469715.661:  -1511  68   9  880
1477469715.662:  -1485  68   9  880
1477469715.663:  -1464  68   9  880
1477469715.666:  -1461  68   9  880
1477469715.670:  -1469  68   9  880
1477469715.670:  -1467  68   9  880
1477469715.673:  -1442  68   9  880
1477469715.674:  -1397  68   9  880
1477469715.674:  -1348  68   9  880
1477469715.677:  -1307  68   9  880
1477469715.680:  -1268  68   9  880
1477469715.684:  -1218  68   9  880
1477469715.698:  -1149  68   9  880
1477469715.698:  -1064  68   9  880
1477469715.698:   -973  68   9  880
1477469715.698:   -870  68   9  880
1477469715.698:   -744  68   9  880
1477469715.698:   -596  68   9  880
1477469715.698:   -443  68   9  880
1477469715.699:   -307  68   9  880
1477469715.699:   -186  68   9  880
1477469715.701:    -65  68   9  880
1477469715.701:     67  68   9  880
1477469715.706:    199  68   9  880
1477469715.718:    310  68   9  880
1477469715.718:    399  68   9  880
1477469715.719:    489  68   9  880
1477469715.719:    604  68   9  880
1477469715.719:    740  68   9  880
1477469715.719:    866  68   9  880
1477469715.719:    962  68   9  880
1477469715.721:   1033  68   9  880
1477469715.725:   1100  68   9  880
1477469715.725:   1176  68   9  880
1477469715.727:   1250  68   9  880
1477469715.730:   1302  68   9  880
1477469715.731:   1325  68   9  880
1477469715.732:   1332  68   9  880
1477469715.734:   1346  68   9  880
1477469715.736:   1383  68   9  880
1477469715.739:   1437  68   9  880
1477469715.740:   1482  68   9  880
1477469715.744:   1490  68   9  880
1477469715.744:   1456  68   9  880
1477469715.745:   1408  68   9  880
1477469715.747:   1379  68   9  880
1477469715.749:   1385  68   9  880
1477469715.752:   1402  68   9  880
1477469715.802:   1400  68   9  880
1477469715.802:   1369  68   9  880
1477469715.802:   1329  68   9  880
1477469715.802:   1303  68   9  880
1477469715.803:   1292  68   9  880
1477469715.803:   1284  68   9  880
1477469715.803:   1269  68   9  880
1477469715.803:   1252  68   9  880
1477469715.803:   1240  68   9  880
1477469715.803:   1233  68   9  880
1477469715.803:   1225  68   9  880
1477469715.803:   1219  68   9  880
1477469715.804:   1222  68   9  880
1477469715.804:   1230  68   9  880
1477469715.804:   1228  68   9  880
1477469715.804:   1197  68   9  880
1477469715.804:   1146  68   9  880
1477469715.804:   1098  68   9  880
1477469715.804:   1075  68   9  880
1477469715.805:   1072  68   9  880
1477469715.805:   1068  68   9  880
1477469715.805:   1049  68   9  880
1477469715.805:   1020  68   9  880
1477469715.805:    996  68   9  880
1477469715.806:    982  68   9  880
1477469715.806:    970  68   9  880
1477469715.806:    949  68   9  880
1477469715.806:    918  68   9  880
1477469715.812:    884  68   9  880
1477469715.812:    861  68   9  880
1477469715.812:    855  68   9  880
1477469715.814:    860  68   9  880
1477469715.818:    858  68   9  880
1477469715.819:    842  68   9  880
1477469715.833:    821  68   9  880
1477469715.833:    810  68   9  880
1477469715.833:    809  68   9  880
1477469715.833:    795  68   9  880
1477469715.834:    747  68   9  880
1477469715.834:    680  68   9  880
1477469715.834:    632  68   9  880
1477469715.835:    626  68   9  880
1477469715.835:    641  68   9  880
1477469715.838:    642  68   9  880
1477469715.839:    621  68   9  880
1477469715.841:    603  68   9  880
1477469715.857:    610  68   9  880
1477469715.857:    630  68   9  880
1477469715.858:    636  68   9  880
1477469715.858:    616  68   9  880
1477469715.858:    590  68   9  880
1477469715.858:    576  68   9  880
1477469715.859:    570  68   9  880
1477469715.859:    550  68   9  880
1477469715.859:    514  68   9  880
1477469715.861:    483  68   9  880
1477469715.867:    480  68   9  880
1477469715.868:    502  68   9  880
1477469715.876:    527  68   9  880
1477469715.877:    533  68   9  880
1477469715.877:    520  68   9  880
1477469715.877:    507  68   9  880
1477469715.877:    510  68   9  880
1477469715.881:    527  68   9  880
1477469715.881:    540  68   9  880
1477469715.882:    529  68   9  880
1477469715.883:    498  68   9  880
1477469715.888:    471  68   9  880
1477469715.903:    464  68   9  880
1477469715.903:    470  68   9  880
1477469715.903:    473  68   9  880
1477469715.904:    468  68   9  880
1477469715.904:    467  68   9  880
1477469715.904:    476  68   9  880
1477469715.905:    480  68   9  880
1477469715.905:    460  68   9  880
1477469715.906:    421  68   9  880
1477469715.907:    392  68   9  880
1477469715.907:    387  68   9  880
1477469715.909:    394  68   9  880
1477469715.910:    392  68   9  880
1477469715.911:    387  68   9  880
1477469715.914:    398  68   9  880
1477469715.916:    428  68   9  880
1477469715.926:    457  68   9  880
1477469715.926:    462  68   9  880
1477469715.926:    447  68   9  880
1477469715.926:    435  68   9  880
1477469715.926:    435  68   9  880
1477469715.928:    433  68   9  880
1477469715.930:    417  68   9  880
1477469715.935:    394  68   9  880
1477469715.935:    387  68   9  880
1477469715.936:    400  68   9  880
1477469715.938:    417  68   9  880
1477469715.940:    419  68   9  880
1477469715.941:    405  68   9  880
1477469715.944:    392  68   9  880
1477469715.948:    388  68   9  880
1477469715.948:    393  68   9  880
1477469715.959:    401  68   9  880
1477469715.959:    410  68   9  880
1477469715.959:    425  68   9  880
1477469715.960:    443  68   9  880
1477469715.960:    456  68   9  880
1477469715.960:    454  68   9  880
1477469715.961:    434  68   9  880
1477469715.963:    408  68   9  880
1477469715.967:    388  68   9  880
1477469715.967:    372  68   9  880
1477469715.969:    352  68   9  880
1477469715.972:    323  68   9  880
1477469715.981:    300  68   9  880
1477469715.981:    300  68   9  880
1477469715.981:    326  68   9  880
1477469715.981:    361  68   9  880
1477469715.981:    382  68   9  880
1477469715.983:    382  68   9  880
1477469715.985:    370  68   9  880
1477469715.986:    364  68   9  880
1477469715.996:    372  68   9  880
1477469715.996:    389  68   9  880
1477469715.996:    405  68   9  880
1477469715.997:    407  68   9  880
1477469715.999:    393  68   9  880
1477469715.999:    374  68   9  880
1477469716.003:    362  68   9  880
1477469716.003:    361  68   9  880
1477469716.020:    361  68   9  880
1477469716.021:    345  68   9  880
1477469716.021:    314  68   9  880
1477469716.021:    284  68   9  880
1477469716.021:    275  68   9  880
1477469716.021:    290  68   9  880
1477469716.022:    314  68   9  880
1477469716.025:    332  68   9  880
1477469716.025:    337  68   9  880
1477469716.026:    333  68   9  880
1477469716.026:    326  68   9  880
1477469716.026:    317  68   9  880
1477469716.028:    310  68   9  880
1477469716.030:    311  68   9  880
1477469716.042:    328  68   9  880
1477469716.042:    352  68   9  880
1477469716.042:    366  68   9  880
1477469716.042:    357  68   9  880
1477469716.043:    335  68   9  880
1477469716.044:    322  68   9  880
1477469716.045:    331  68   9  880
1477469716.046:    353  68   9  880
1477469716.050:    361  68   9  880
1477469716.050:    342  68   9  880
1477469716.053:    306  68   9  880
1477469716.054:    274  68   9  880
1477469716.064:    255  68   9  880
1477469716.064:    246  68   9  880
1477469716.064:    238  68   9  880
1477469716.064:    227  68   9  880
1477469716.065:    215  68   9  880
1477469716.065:    202  68   9  880
1477469716.068:    188  68   9  880
1477469716.070:    177  68   9  880
1477469716.081:    180  68   9  880
1477469716.081:    201  68   9  880
1477469716.094:    232  68   9  880
1477469716.094:    257  68   9  880
1477469716.094:    260  68   9  880
1477469716.094:    241  68   9  880
1477469716.095:    208  68   9  880
1477469716.095:    179  68   9  880
1477469716.095:    166  68   9  880
1477469716.095:    167  68   9  880
1477469716.095:    170  68   9  880
1477469716.096:    160  68   9  880
1477469716.096:    139  68   9  880
1477469716.100:    123  68   9  880
1477469716.100:    127  68   9  880
1477469716.102:    145  68   9  880
1477469716.103:    151  68   9  880
1477469716.105:    134  68   9  880
1477469716.108:    112  68   9  880
1477469716.109:    105  68   9  880
1477469716.113:    117  68   9  880
1477469716.114:    123  68   9  880
1477469716.117:    108  68   9  880
1477469716.117:     84  68   9  880
1477469716.131:     78  68   9  880
1477469716.132:     86  68   9  880
1477469716.154:     75  68   9  880
1477469716.155:     19  68   9  880
1477469716.155:    -64  68   9  880
1477469716.155:   -133  68   9  880
1477469716.155:   -169  68   9  880
1477469716.156:   -196  68   9  880
1477469716.157:   -245  68   9  880
1477469716.157:   -299  68   9  880
1477469716.158:   -320  68   9  880
1477469716.159:   -294  68   9  880
1477469716.163:   -256  68   9  880
1477469716.163:   -246  68   9  880
1477469716.164:   -254  68   9  880
1477469716.164:   -237  68   9  880
1477469716.164:   -174  68   9  880
1477469716.164:   -101  68   9  880
1477469716.164:    -66  68   9  880
1477469716.164:    -74  68   9  880
1477469716.165:    -83  68   9  880
1477469716.165:    -64  68   9  880
1477469716.165:    -38  68   9  880
1477469716.167:    -47  68   9  880
1477469716.168:    -88  68   9  880
1477469716.169:   -120  68   9  880
1477469716.173:   -107  68   9  880
1477469716.173:    -62  68   9  880
1477469716.175:    -24  68   9  880
1477469716.176:     -1  68   9  880
1477469716.176:     29  68   9  880
1477469716.179:     78  68   9  880
1477469716.181:    126  68   9  880
1477469716.186:    147  68   9  880
1477469716.186:    144  68   9  880
1477469716.188:    143  68   9  880
1477469716.189:    154  68   9  880
1477469716.192:    166  68   9  880
1477469716.209:    166  68   9  880
1477469716.209:    160  68   9  880
1477469716.209:    162  68   9  880
1477469716.209:    167  68   9  880
1477469716.210:    161  68   9  880
1477469716.210:    140  68   9  880
1477469716.210:    121  68   9  880
1477469716.211:    115  68   9  880
1477469716.212:    115  68   9  880
1477469716.213:    109  68   9  880
1477469716.214:    100  68   9  880
1477469716.216:    101  68   9  880
1477469716.217:    114  68   9  880
1477469716.221:    131  68   9  880
1477469716.222:    140  68   9  880
1477469716.223:    140  68   9  880
1477469716.224:    139  68   9  880
1477469716.226:    144  68   9  880
1477469716.244:    154  68   9  880
1477469716.244:    166  68   9  880
1477469716.245:    176  68   9  880
1477469716.245:    178  68   9  880
1477469716.246:    173  68   9  880
1477469716.246:    166  68   9  880
1477469716.246:    156  68   9  880
1477469716.246:    128  68   9  880
1477469716.250:     75  68   9  880
1477469716.250:     16  68   9  880
1477469716.250:    -25  68   9  880
1477469716.252:    -50  68   9  880
1477469716.252:   -101  68   9  880
1477469716.254:   -205  68   9  880
1477469716.264:   -340  68   9  880
1477469716.264:   -456  68   9  880
1477469716.265:   -530  68   9  880
1477469716.265:   -591  68   9  880
1477469716.265:   -677  68   9  880
1477469716.267:   -807  68   9  880
1477469716.267:   -989  68   9  880
1477469716.269:  -1247  68   9  880
1477469716.273:  -1619  68   9  880
1477469716.273:  -2125  68   9  880
1477469716.278:  -2759  68   9  880
1477469716.278:  -3486  68   9  880
1477469716.280:  -4241  68   9  880
1477469716.281:  -4929  68   9  880
1477469716.294:  -5431  68   9  880
1477469716.294:  -5633  68   9  880
1477469716.295:  -5436  68   9  880
1477469716.295:  -4753  68   9  880
1477469716.295:  -3553  68   9  880
1477469716.295:  -1936  68   9  880
1477469716.296:   -140  68   9  880
1477469716.301:   1568  68   9  880
1477469716.302:   3040  68   9  880
1477469716.302:   4257  68   9  880
1477469716.303:   5194  68   9  880
1477469716.306:   5725  68   9  880
1477469716.307:   5707  68   9  880
1477469716.308:   5166  68   9  880
1477469716.310:   4330  68   9  880
1477469716.313:   3472  68   9  880
1477469716.316:   2728  68   9  880
1477469716.319:   2091  68   9  880
1477469716.320:   1537  68   9  880
1477469716.323:   1110  68   9  880
1477469716.324:    866  68   9  880
1477469716.326:    792  68   9  879
1477469716.329:    797  68   9  879
1477469716.332:    786  68   9  879
1477469716.343:    726  68   9  879
1477469716.343:    627  68   9  879
1477469716.343:    504  68   9  879
1477469716.343:    369  68   9  879
1477469716.344:    236  68   9  879
1477469716.344:    120  68   9  879
1477469716.344:     37  68   9  879
1477469716.346:     -2  68   9  879
1477469716.346:      1  68   9  879
1477469716.348:     26  68   9  879
1477469716.351:     46  68   9  879
1477469716.356:     36  68   9  879
1477469716.364:     -6  68   9  879
1477469716.364:    -67  68   9  879
1477469716.365:   -135  68   9  879
1477469716.365:   -198  68   9  879
1477469716.365:   -247  68   9  879
1477469716.367:   -266  68   9  879
1477469716.369:   -253  68   9  879
1477469716.369:   -222  68   9  879
1477469716.371:   -199  68   9  879
1477469716.377:   -195  68   9  879
1477469716.377:   -204  68   9  879
1477469716.379:   -215  68   9  879
1477469716.379:   -226  68   9  879
1477469716.387:   -244  68   9  879
1477469716.401:   -267  68   9  879
1477469716.401:   -280  68   9  879
1477469716.401:   -270  68   9  879
1477469716.402:   -249  68   9  879
1477469716.402:   -237  68   9  879
1477469716.402:   -244  68   9  879
1477469716.402:   -251  68   9  879
