timestamp: ADC HeartRate4sAverage HeartRate30sAverage HRV8sAverage
1477470217.316:   1489  71   9 1798
1477470217.316:   1487  71   9 1798
1477470217.316:   1495  71   9 1798
1477470217.317:   1495  71   9 1798
1477470217.327:   1469  71   9 1798
1477470217.327:   1418  71   9 1798
1477470217.328:   1364  71   9 1798
1477470217.328:   1330  71   9 1798
1477470217.328:   1312  71   9 1798
1477470217.328:   1292  71   9 1798
1477470217.329:   1253  71   9 1798
1477470217.329:   1201  71   9 1798
1477470217.330:   1150  71   9 1798
1477470217.331:   1110  71   9 1798
1477470217.333:   1080  71   9 1798
1477470217.334:   1053  71   9 1798
1477470217.339:   1026  71   9 1798
1477470217.339:    993  71   9 1798
1477470217.345:    952  71   9 1798
1477470217.345:    902  71   9 1798
1477470217.346:    845  71   9 1798
1477470217.347:    786  71   9 1798
1477470217.347:    725  71   9 1798
1477470217.350:    664  71   9 1798
1477470217.354:    606  71   9 1798
1477470217.357:    552  71   9 1798
1477470217.363:    500  71   9 1798
1477470217.364:    443  71   9 1798
1477470217.365:    381  71   9 1798
1477470217.365:    326  71   9 1798
1477470217.365:    285  71   9 1798
1477470217.366:    254  71   9 1798
1477470217.370:    220  71   9 1798
1477470217.371:    176  71   9 1798
1477470217.372:    125  71   9 1798
1477470217.373:     74  71   9 1798
1477470217.383:     29  71   9 1798
1477470217.383:    -10  71   9 1798
1477470217.384:    -43  80  10 1804
1477470217.409:    -70  80  10 1804
1477470217.420:    -91  80  10 1804
1477470217.421:   -110  80  10 1804
1477470217.421:   -125  80  10 1804
1477470217.421:   -133  80  10 1804
1477470217.421:   -133  80  10 1804
1477470217.421:   -129  80  10 1804
1477470217.421:   -124  80  10 1804
1477470217.422:   -117  80  10 1804
1477470217.422:   -105  80  10 1804
1477470217.422:    -94  80  10 1804
1477470217.422:    -94  80  10 1804
1477470217.422:   -106  80  10 1804
1477470217.422:   -117  80  10 1804
1477470217.422:   -115  80  10 1804
1477470217.423:   -100  80  10 1804
1477470217.423:    -85  80  10 1804
1477470217.423:    -82  80  10 1804
1477470217.423:    -83  80  10 1804
1477470217.423:    -78  80  10 1804
1477470217.423:    -62  80  10 1804
1477470217.426:    -45  80  10 1804
1477470217.426:    -40  80  10 1804
1477470217.428:    -47  80  10 1804
1477470217.432:    -57  80  10 1804
1477470217.432:    -62  80  10 1804
1477470217.435:    -61  80  10 1804
1477470217.438:    -60  80  10 1804
1477470217.440:    -61  80  10 1804
1477470217.454:    -64  80  10 1804
1477470217.454:    -63  80  10 1804
1477470217.454:    -56  80  10 1804
1477470217.455:    -48  80  10 1804
1477470217.455:    -43  80  10 1804
1477470217.456:    -41  80  10 1804
1477470217.456:    -41  80  10 1804
1477470217.456:    -42  80  10 1804
1477470217.457:    -48  80  10 1804
1477470217.457:    -61  80  10 1804
1477470217.458:    -76  80  10 1804
1477470217.463:    -81  80  10 1804
1477470217.474:    -75  80  10 1804
1477470217.475:    -64  80  10 1804
1477470217.475:    -58  80  10 1804
1477470217.476:    -55  80  10 1804
1477470217.477:    -44  80  10 1804
1477470217.478:    -24  80  10 1804
1477470217.479:     -2  80  10 1804
1477470217.479:     11  80  10 1804
1477470217.484:     22  80  10 1804
1477470217.486:     41  80  10 1804
1477470217.494:     63  80  10 1804
1477470217.494:     74  80  10 1804
1477470217.494:     66  80  10 1804
1477470217.494:     57  80  10 1804
1477470217.494:     71  80  10 1804
1477470217.495:    104  80  10 1804
1477470217.495:    126  80  10 1804
1477470217.497:    114  80  10 1804
1477470217.498:     80  80  10 1804
1477470217.499:     59  80  10 1804
1477470217.501:     68  80  10 1804
1477470217.504:     91  80  10 1804
1477470217.514:    102  80  10 1804
1477470217.514:     96  80  10 1804
1477470217.514:     85  80  10 1804
1477470217.514:     85  80  10 1804
1477470217.514:     98  80  10 1804
1477470217.516:    116  80  10 1804
1477470217.518:    135  80  10 1804
1477470217.522:    155  80  10 1804
1477470217.522:    174  80  10 1804
1477470217.524:    187  80  10 1804
1477470217.525:    191  80  10 1804
1477470217.526:    184  80  10 1804
1477470217.528:    173  80  10 1804
1477470217.531:    161  80  10 1804
1477470217.532:    156  80  10 1804
1477470217.535:    156  80  10 1804
1477470217.536:    157  80  10 1804
1477470217.541:    147  80  10 1804
1477470217.554:    125  80  10 1804
1477470217.554:    101  80  10 1804
1477470217.554:     94  80  10 1804
1477470217.554:    112  80  10 1804
1477470217.554:    145  80  10 1804
1477470217.554:    168  80  10 1804
1477470217.555:    167  80  10 1804
1477470217.555:    148  80  10 1804
1477470217.557:    136  80  10 1804
1477470217.557:    148  80  10 1804
1477470217.560:    180  80  10 1804
1477470217.563:    213  80  10 1804
1477470217.564:    226  80  10 1804
1477470217.568:    217  80  10 1804
1477470217.580:    200  80  10 1804
1477470217.581:    193  80  10 1804
1477470217.583:    203  80  10 1804
1477470217.584:    221  80  10 1804
1477470217.585:    234  80  10 1804
1477470217.585:    231  80  10 1804
1477470217.585:    215  80  10 1804
1477470217.586:    198  80  10 1804
1477470217.586:    188  80  10 1804
1477470217.586:    185  80  10 1804
1477470217.588:    186  80  10 1804
1477470217.590:    187  80  10 1804
1477470217.591:    190  80  10 1804
1477470217.595:    197  80  10 1804
1477470217.605:    203  80  10 1804
1477470217.605:    202  80  10 1804
1477470217.605:    198  80  10 1804
1477470217.605:    204  80  10 1804
1477470217.605:    227  80  10 1804
1477470217.605:    257  80  10 1804
1477470217.610:    280  80  10 1804
1477470217.610:    286  80  10 1804
1477470217.611:    289  80  10 1804
1477470217.613:    303  80  10 1804
1477470217.615:    332  80  10 1804
1477470217.618:    369  80  10 1804
1477470217.626:    408  80  10 1804
1477470217.626:    448  80  10 1804
1477470217.626:    493  80  10 1804
1477470217.627:    537  80  10 1804
1477470217.628:    574  80  10 1804
1477470217.629:    604  80  10 1804
1477470217.631:    631  80  10 1804
1477470217.633:    655  80  10 1804
1477470217.638:    675  80  10 1804
1477470217.638:    687  80  10 1804
1477470217.645:    690  80  10 1804
1477470217.646:    682  80  10 1804
1477470217.646:    659  80  10 1804
1477470217.646:    622  80  10 1804
1477470217.651:    584  80  10 1804
1477470217.651:    561  80  10 1804
1477470217.651:    557  80  10 1804
1477470217.653:    557  80  10 1804
1477470217.655:    539  80  10 1804
1477470217.656:    498  80  10 1804
1477470217.665:    447  80  10 1804
1477470217.665:    403  80  10 1804
1477470217.666:    374  80  10 1804
1477470217.667:    352  80  10 1804
1477470217.667:    322  80  10 1804
1477470217.671:    273  80  10 1804
1477470217.672:    207  80  10 1804
1477470217.673:    136  80  10 1804
1477470217.679:     78  80  10 1804
1477470217.681:     41  80  10 1804
1477470217.682:     20  80  10 1804
1477470217.683:      2  80  10 1804
1477470217.684:    -18  80  10 1804
1477470217.796:    -39  80  10 1804
1477470217.800:    -60  80  10 1804
1477470217.800:    -80  80  10 1804
1477470217.800:    -91  80  10 1804
1477470217.801:    -87  80  10 1804
1477470217.801:    -77  80  10 1804
1477470217.802:    -78  80  10 1804
1477470217.802:   -100  80  10 1804
1477470217.802:   -132  80  10 1804
1477470217.802:   -149  80  10 1804
1477470217.802:   -145  80  10 1804
1477470217.803:   -140  80  10 1804
1477470217.803:   -153  80  10 1804
1477470217.803:   -179  80  10 1804
1477470217.803:   -190  80  10 1804
1477470217.804:   -177  80  10 1804
1477470217.804:   -161  80  10 1804
1477470217.804:   -166  80  10 1804
1477470217.805:   -186  80  10 1804
1477470217.805:   -193  80  10 1804
1477470217.806:   -172  80  10 1804
1477470217.806:   -139  80  10 1804
1477470217.806:   -118  80  10 1804
1477470217.806:   -112  80  10 1804
1477470217.807:   -107  80  10 1804
1477470217.807:    -93  80  10 1804
1477470217.807:    -72  80  10 1804
1477470217.808:    -52  80  10 1804
1477470217.808:    -35  80  10 1804
1477470217.820:    -12  80  10 1804
1477470217.821:     28  80  10 1804
1477470217.822:     90  80  10 1804
1477470217.822:    173  80  10 1804
1477470217.824:    271  80  10 1804
1477470217.825:    377  80  10 1804
1477470217.825:    489  80  10 1804
1477470217.825:    625  80  10 1804
1477470217.826:    811  80  10 1804
1477470217.827:   1061  80  10 1804
1477470217.827:   1361  80  10 1804
1477470217.827:   1684  80  10 1804
1477470217.828:   2017  80  10 1804
1477470217.828:   2384  80  10 1804
1477470217.829:   2826  80  10 1804
1477470217.829:   3347  80  10 1804
1477470217.849:   3865  80  10 1804
1477470217.850:   4242  80  10 1804
1477470217.850:   4369  80  10 1804
1477470217.851:   4232  80  10 1804
1477470217.852:   3876  80  10 1804
1477470217.852:   3300  80  10 1804
1477470217.853:   2431  80  10 1804
1477470217.853:   1232  80  10 1804
1477470217.854:   -167  80  10 1804
1477470217.855:  -1490  80  10 1804
1477470217.857:  -2512  80  10 1804
1477470217.858:  -3212  80  10 1804
1477470217.859:  -3723  80  10 1804
1477470217.860:  -4121  80  10 1804
1477470217.861:  -4317  80  10 1804
1477470217.861:  -4163  80  10 1804
1477470217.873:  -3660  80  10 1804
1477470217.874:  -3007  80  10 1804
1477470217.875:  -2440  80  10 1804
1477470217.876:  -2057  80  10 1804
1477470217.877:  -1794  80  10 1804
1477470217.877:  -1554  80  10 1804
1477470217.878:  -1310  80  10 1804
1477470217.879:  -1097  80  10 1804
1477470217.880:   -943  80  10 1804
1477470217.880:   -832  80  10 1804
1477470217.881:   -727  80  10 1804
1477470217.881:   -605  80  10 1804
1477470217.896:   -465  80  10 1804
1477470217.896:   -314  80  10 1804
1477470217.896:   -165  80  10 1804
1477470217.897:    -43  80  10 1804
1477470217.897:     33  80  10 1804
1477470217.897:     62  80  10 1804
1477470217.897:     58  80  10 1804
1477470217.898:     44  80  10 1804
1477470217.898:     38  80  10 1804
1477470217.898:     56  80  10 1804
1477470217.898:    107  80  10 1804
1477470217.898:    184  80  10 1804
1477470217.899:    264  80  10 1804
1477470217.899:    317  80  10 1804
1477470217.899:    331  80  10 1804
1477470217.899:    316  80  10 1804
1477470217.900:    291  80  10 1804
1477470217.900:    272  80  10 1804
1477470217.900:    266  80  10 1804
1477470217.900:    281  80  10 1804
1477470217.900:    316  80  10 1804
1477470217.901:    361  80  10 1804
1477470217.901:    397  80  10 1804
1477470217.901:    408  80  10 1804
1477470217.902:    397  80  10 1804
1477470217.902:    376  80  10 1804
1477470217.902:    356  80  10 1804
1477470217.903:    345  80  10 1804
1477470217.903:    346  80  10 1804
1477470217.903:    357  80  10 1804
1477470217.903:    368  80  10 1804
1477470217.904:    370  80  10 1804
1477470217.904:    367  80  10 1804
1477470217.904:    371  80  10 1804
1477470217.905:    393  80  10 1804
1477470217.905:    425  80  10 1804
1477470217.905:    450  80  10 1804
1477470217.906:    463  80  10 1804
1477470217.919:    478  80  10 1804
1477470217.919:    509  80  10 1804
1477470217.920:    554  80  10 1804
1477470217.920:    598  80  10 1804
1477470217.920:    630  80  10 1804
1477470217.921:    654  80  10 1804
1477470217.921:    687  80  10 1804
1477470217.921:    735  80  10 1804
1477470217.922:    793  80  10 1804
1477470217.922:    849  80  10 1804
1477470217.924:    898  80  10 1804
1477470217.925:    945  80  10 1804
1477470217.926:    998  80  10 1804
1477470217.927:   1055  80  10 1804
1477470217.940:   1108  80  10 1804
1477470217.941:   1150  80  10 1804
1477470217.941:   1185  80  10 1804
1477470217.941:   1221  80  10 1804
1477470217.941:   1257  80  10 1804
1477470217.941:   1285  80  10 1804
1477470217.942:   1306  80  10 1804
1477470217.942:   1328  80  10 1804
1477470217.947:   1360  80  10 1804
1477470217.948:   1396  80  10 1804
1477470217.956:   1425  80  10 1804
1477470217.957:   1443  80  10 1804
1477470217.957:   1464  80  10 1804
1477470217.958:   1496  80  10 1804
1477470217.959:   1528  80  10 1804
1477470217.959:   1539  80  10 1804
1477470217.962:   1526  80  10 1804
1477470217.963:   1511  80  10 1804
1477470217.981:   1517  80  10 1804
1477470217.982:   1533  80  10 1804
1477470217.982:   1533  80  10 1804
1477470217.982:   1505  80  10 1804
1477470217.982:   1471  80  10 1804
1477470217.982:   1462  80  10 1804
1477470217.983:   1478  80  10 1804
1477470217.983:   1492  80  10 1804
1477470217.983:   1484  80  10 1804
1477470217.985:   1459  80  10 1804
1477470217.986:   1438  80  10 1804
1477470217.987:   1429  80  10 1804
1477470217.989:   1422  80  10 1804
1477470217.991:   1411  80  10 1804
1477470217.993:   1399  80  10 1804
1477470217.994:   1388  80  10 1804
1477470218.003:   1369  80  10 1804
1477470218.003:   1326  80  10 1804
1477470218.004:   1267  80  10 1804
1477470218.005:   1217  80  10 1804
1477470218.006:   1195  80  10 1804
1477470218.007:   1187  80  10 1804
1477470218.008:   1162  80  10 1804
1477470218.013:   1106  80  10 1804
1477470218.023:   1040  80  10 1804
1477470218.024:    993  80  10 1804
1477470218.025:    975  80  10 1804
1477470218.025:    968  80  10 1804
1477470218.026:    948  80  10 1804
1477470218.026:    907  80  10 1804
1477470218.026:    858  80  10 1804
1477470218.026:    814  80  10 1804
1477470218.030:    778  80  10 1804
1477470218.030:    745  80  10 1804
1477470218.032:    703  80  10 1804
1477470218.036:    646  80  10 1804
1477470218.036:    579  80  10 1804
1477470218.041:    516  80  10 1804
1477470218.041:    467  80  10 1804
1477470218.044:    429  80  10 1804
1477470218.045:    388  80  10 1804
1477470218.049:    333  80  10 1804
1477470218.049:    270  88  11 1806
1477470218.051:    218  88  11 1806
1477470218.055:    190  88  11 1806
1477470218.055:    175  88  11 1806
1477470218.072:    155  88  11 1806
1477470218.073:    123  88  11 1806
1477470218.074:     90  88  11 1806
1477470218.074:     75  88  11 1806
1477470218.075:     78  88  11 1806
1477470218.076:     84  88  11 1806
1477470218.077:     81  88  11 1806
1477470218.078:     69  88  11 1806
1477470218.078:     62  88  11 1806
1477470218.079:     65  88  11 1806
1477470218.080:     68  88  11 1806
1477470218.081:     63  88  11 1806
1477470218.084:     51  88  11 1806
1477470218.085:     45  88  11 1806
1477470218.087:     51  88  11 1806
1477470218.088:     59  88  11 1806
1477470218.089:     59  88  11 1806
1477470218.089:     51  88  11 1806
1477470218.091:     46  88  11 1806
1477470218.095:     51  88  11 1806
1477470218.096:     56  88  11 1806
1477470218.098:     50  88  11 1806
1477470218.100:     38  88  11 1806
1477470218.101:     30  88  11 1806
1477470218.120:     30  88  11 1806
1477470218.120:     26  88  11 1806
1477470218.121:      9  88  11 1806
1477470218.121:    -13  88  11 1806
1477470218.131:    -26  88  11 1806
1477470218.131:    -27  88  11 1806
1477470218.132:    -29  88  11 1806
1477470218.135:    -41  88  11 1806
1477470218.135:    -54  88  11 1806
1477470218.135:    -48  88  11 1806
1477470218.136:    -24  88  11 1806
1477470218.136:     -1  88  11 1806
1477470218.136:      7  88  11 1806
1477470218.136:     10  88  11 1806
1477470218.136:     28  88  11 1806
1477470218.137:     63  88  11 1806
1477470218.137:     93  88  11 1806
1477470218.139:    100  88  11 1806
1477470218.153:     89  88  11 1806
1477470218.153:     87  88  11 1806
1477470218.153:    104  88  11 1806
1477470218.153:    124  88  11 1806
1477470218.153:    128  88  11 1806
1477470218.153:    120  88  11 1806
1477470218.154:    125  88  11 1806
1477470218.154:    154  88  11 1806
1477470218.154:    189  88  11 1806
1477470218.157:    206  88  11 1806
1477470218.158:    204  88  11 1806
1477470218.161:    209  88  11 1806
1477470218.162:    240  88  11 1806
1477470218.164:    282  88  11 1806
1477470218.165:    303  88  11 1806
1477470218.167:    286  88  11 1806
1477470218.179:    251  88  11 1806
1477470218.179:    232  88  11 1806
1477470218.179:    241  88  11 1806
1477470218.180:    261  88  11 1806
1477470218.180:    268  88  11 1806
1477470218.180:    253  88  11 1806
1477470218.180:    229  88  11 1806
1477470218.186:    219  88  11 1806
1477470218.186:    233  88  11 1806
1477470218.189:    261  88  11 1806
1477470218.199:    288  88  11 1806
1477470218.200:    299  88  11 1806
1477470218.200:    295  88  11 1806
1477470218.200:    288  88  11 1806
1477470218.201:    288  88  11 1806
1477470218.201:    298  88  11 1806
1477470218.201:    312  88  11 1806
1477470218.204:    323  88  11 1806
1477470218.206:    323  88  11 1806
1477470218.211:    310  88  11 1806
1477470218.219:    293  88  11 1806
1477470218.220:    285  88  11 1806
1477470218.221:    286  88  11 1806
1477470218.222:    283  88  11 1806
1477470218.222:    265  88  11 1806
1477470218.223:    245  88  11 1806
1477470218.223:    257  88  11 1806
1477470218.224:    315  88  11 1806
1477470218.228:    391  88  11 1806
1477470218.228:    437  88  11 1806
1477470218.237:    442  88  11 1806
1477470218.238:    450  88  11 1806
1477470218.239:    510  88  11 1806
1477470218.239:    602  88  11 1806
1477470218.240:    642  88  11 1806
1477470218.241:    568  88  11 1806
1477470218.241:    404  88  11 1806
1477470218.247:    239  88  11 1806
1477470218.248:    128  88  11 1806
1477470218.248:     43  88  11 1806
1477470218.249:    -83  88  11 1806
1477470218.251:   -266  88  11 1806
1477470218.253:   -456  88  11 1806
1477470218.257:   -591  88  11 1806
1477470218.261:   -660  88  11 1806
1477470218.262:   -702  88  11 1806
1477470218.265:   -759  88  11 1806
1477470218.266:   -845  88  11 1806
1477470218.280:   -953  88  11 1806
1477470218.281:  -1087  88  11 1806
1477470218.281:  -1255  88  11 1806
1477470218.289:  -1455  88  11 1806
1477470218.301:  -1673  88  11 1806
1477470218.302:  -1891  88  11 1806
1477470218.302:  -2109  88  11 1806
1477470218.302:  -2332  88  11 1806
1477470218.302:  -2554  88  11 1806
1477470218.302:  -2741  88  11 1806
1477470218.302:  -2847  88  11 1806
1477470218.302:  -2846  88  11 1806
1477470218.303:  -2758  88  11 1806
1477470218.303:  -2633  88  11 1806
1477470218.303:  -2493  88  11 1806
1477470218.303:  -2304  88  11 1806
1477470218.303:  -2012  88  11 1806
1477470218.303:  -1612  88  11 1806
1477470218.303:  -1169  88  11 1806
1477470218.304:   -759  88  11 1806
1477470218.304:   -398  88  11 1806
1477470218.304:    -47  88  11 1806
1477470218.307:    305  88  11 1806
1477470218.313:    612  88  11 1806
1477470218.316:    819  88  11 1806
1477470218.317:    940  88  11 1806
1477470218.319:   1040  88  11 1806
1477470218.324:   1155  88  11 1806
1477470218.324:   1233  88  11 1806
1477470218.326:   1212  88  11 1806
1477470218.344:   1115  88  11 1806
1477470218.345:   1048  88  11 1806
1477470218.345:   1093  88  11 1806
1477470218.346:   1218  88  11 1806
1477470218.348:   1321  88  11 1806
1477470218.349:   1342  88  11 1806
1477470218.349:   1319  88  11 1806
1477470218.350:   1325  88  11 1806
1477470218.412:   1389  88  11 1806
1477470218.412:   1468  88  11 1806
1477470218.412:   1509  88  11 1806
1477470218.412:   1493  88  11 1806
1477470218.412:   1436  88  11 1806
1477470218.412:   1366  88  11 1806
1477470218.412:   1300  88  11 1806
1477470218.413:   1250  88  11 1806
1477470218.413:   1219  88  11 1806
1477470218.413:   1198  88  11 1806
1477470218.413:   1170  88  11 1806
1477470218.413:   1128  88  11 1806
1477470218.413:   1081  88  11 1806
1477470218.414:   1047  88  11 1806
1477470218.414:   1035  88  11 1806
1477470218.414:   1042  88  11 1806
1477470218.414:   1055  88  11 1806
1477470218.414:   1066  88  11 1806
1477470218.414:   1068  88  11 1806
1477470218.415:   1069  88  11 1806
1477470218.415:   1080  88  11 1806
1477470218.415:   1110  88  11 1806
1477470218.415:   1152  88  11 1806
1477470218.415:   1191  88  11 1806
1477470218.415:   1213  88  11 1806
1477470218.416:   1226  88  11 1806
1477470218.416:   1244  88  11 1806
1477470218.416:   1273  88  11 1806
1477470218.431:   1302  88  11 1806
1477470218.431:   1320  88  11 1806
1477470218.431:   1323  88  11 1806
1477470218.431:   1318  88  11 1806
1477470218.432:   1317  88  11 1806
1477470218.433:   1328  88  11 1806
1477470218.433:   1350  88  11 1806
1477470218.433:   1376  88  11 1806
1477470218.433:   1394  88  11 1806
1477470218.433:   1400  88  11 1806
1477470218.433:   1401  88  11 1806
1477470218.434:   1411  88  11 1806
1477470218.434:   1433  88  11 1806
1477470218.434:   1460  88  11 1806
1477470218.434:   1484  88  11 1806
1477470218.434:   1506  88  11 1806
1477470218.434:   1533  88  11 1806
1477470218.434:   1565  88  11 1806
1477470218.435:   1601  88  11 1806
1477470218.435:   1639  88  11 1806
1477470218.435:   1679  88  11 1806
1477470218.438:   1722  88  11 1806
1477470218.439:   1761  88  11 1806
1477470218.440:   1793  88  11 1806
1477470218.442:   1825  88  11 1806
1477470218.443:   1869  88  11 1806
1477470218.444:   1929  88  11 1806
1477470218.446:   1996  88  11 1806
1477470218.454:   2060  88  11 1806
1477470218.455:   2122  88  11 1806
1477470218.457:   2191  88  11 1806
1477470218.457:   2268  88  11 1806
1477470218.457:   2342  88  11 1806
1477470218.458:   2398  88  11 1806
1477470218.459:   2433  88  11 1806
1477470218.461:   2458  88  11 1806
1477470218.463:   2481  88  11 1806
1477470218.464:   2492  88  11 1806
1477470218.470:   2479  88  11 1806
1477470218.470:   2437  88  11 1806
1477470218.482:   2384  88  11 1806
1477470218.483:   2336  88  11 1806
1477470218.483:   2294  88  11 1806
1477470218.483:   2245  88  11 1806
1477470218.483:   2175  88  11 1806
1477470218.484:   2088  88  11 1806
1477470218.485:   1998  88  11 1806
1477470218.486:   1909  88  11 1806
1477470218.488:   1816  88  11 1806
1477470218.489:   1709  88  11 1806
1477470218.491:   1586  88  11 1806
1477470218.492:   1453  88  11 1806
1477470218.502:   1317  88  11 1806
1477470218.503:   1178  88  11 1806
1477470218.503:   1038  88  11 1806
1477470218.504:    894  88  11 1806
1477470218.505:    748  88  11 1806
1477470218.506:    601  88  11 1806
1477470218.506:    455  88  11 1806
1477470218.511:    314  88  11 1806
1477470218.512:    183  88  11 1806
1477470218.512:     64  88  11 1806
1477470218.514:    -47  88  11 1806
1477470218.516:   -149  88  11 1806
1477470218.519:   -243  88  11 1806
1477470218.520:   -325  88  11 1806
1477470218.523:   -393  88  11 1806
1477470218.524:   -448  88  11 1806
1477470218.537:   -493  88  11 1806
1477470218.537:   -540  88  11 1806
1477470218.538:   -592  88  11 1806
1477470218.538:   -644  88  11 1806
1477470218.538:   -681  88  11 1806
1477470218.542:   -693  88  11 1806
1477470218.543:   -686  88  11 1806
1477470218.543:   -677  88  11 1806
1477470218.543:   -675  88  11 1806
1477470218.544:   -672  88  11 1806
1477470218.545:   -651  88  11 1806
1477470218.548:   -608  88  11 1806
1477470218.557:   -558  88  11 1806
1477470218.557:   -513  88  11 1806
1477470218.557:   -478  88  11 1806
1477470218.558:   -448  88  11 1806
1477470218.558:   -421  88  11 1806
1477470218.559:   -401  88  11 1806
1477470218.562:   -382  88  11 1806
1477470218.565:   -356  88  11 1806
1477470218.565:   -318  88  11 1806
1477470218.571:   -280  88  11 1806
1477470218.582:   -253  88  11 1806
1477470218.582:   -237  88  11 1806
1477470218.582:   -219  88  11 1806
1477470218.583:   -191  88  11 1806
1477470218.583:   -160  88  11 1806
1477470218.584:   -140  88  11 1806
1477470218.585:   -136  88  11 1806
1477470218.586:   -139  88  11 1806
1477470218.586:   -140  88  11 1806
1477470218.587:   -142  88  11 1806
1477470218.593:   -143  88  11 1806
1477470218.594:   -138  88  11 1806
1477470218.594:   -121  88  11 1806
1477470218.595:    -99  88  11 1806
1477470218.597:    -85  88  11 1806
1477470218.598:    -85  88  11 1806
1477470218.600:    -88  88  11 1806
1477470218.602:    -80  88  11 1806
1477470218.605:    -65  88  11 1806
1477470218.606:    -60  88  11 1806
1477470218.617:    -73  88  11 1806
1477470218.617:    -91  88  11 1806
1477470218.617:    -90  88  11 1806
1477470218.617:    -65  88  11 1806
1477470218.620:    -40  88  11 1806
1477470218.621:    -32  88  11 1806
1477470218.621:    -34  88  11 1806
1477470218.622:    -23  88  11 1806
1477470218.625:     12  88  11 1806
1477470218.627:     52  88  11 1806
1477470218.635:     71  88  11 1806
1477470218.636:     67  88  11 1806
1477470218.637:     61  88  11 1806
1477470218.638:     69  88  11 1806
1477470218.638:     88  88  11 1806
1477470218.639:    103  88  11 1806
1477470218.640:    111  88  11 1806
1477470218.642:    123  88  11 1806
1477470218.647:    140  88  11 1806
1477470218.647:    157  88  11 1806
1477470218.654:    167  88  11 1806
1477470218.655:    175  88  11 1806
1477470218.655:    190  88  11 1806
1477470218.655:    207  88  11 1806
1477470218.655:    216  88  11 1806
1477470218.661:    208  88  11 1806
1477470218.661:    189  88  11 1806
1477470218.689:    173  88  11 1806
1477470218.690:    169  88  11 1806
1477470218.691:    176  88  11 1806
1477470218.694:    188  88  11 1806
1477470218.694:    199  88  11 1806
1477470218.695:    202  88  11 1806
1477470218.695:    198  88  11 1806
1477470218.695:    197  88  11 1806
1477470218.695:    210  88  11 1806
1477470218.695:    233  88  11 1806
1477470218.695:    253  88  11 1806
1477470218.696:    256  88  11 1806
1477470218.696:    246  88  11 1806
1477470218.696:    239  88  11 1806
1477470218.696:    243  88  11 1806
1477470218.696:    252  88  11 1806
1477470218.697:    251  88  11 1806
1477470218.698:    239  88  11 1806
1477470218.699:    229  88  11 1806
1477470218.702:    228  88  11 1806
1477470218.702:    237  88  11 1806
1477470218.705:    243  88  11 1806
1477470218.709:    243  88  11 1806
1477470218.709:    242  88  11 1806
1477470218.712:    246  88  11 1806
1477470218.728:    254  88  11 1806
1477470218.728:    255  88  11 1806
1477470218.728:    245  88  11 1806
1477470218.728:    232  88  11 1806
1477470218.728:    228  88  11 1806
1477470218.728:    236  88  11 1806
1477470218.729:    247  88  11 1662
1477470218.729:    247  88  11 1662
1477470218.731:    235  88  11 1662
1477470218.731:    222  88  11 1662
1477470218.731:    222  88  11 1662
1477470218.733:    236  88  11 1662
1477470218.734:    247  88  11 1662
1477470218.740:    242  88  11 1662
1477470218.748:    226  88  11 1662
1477470218.748:    213  88  11 1662
1477470218.748:    217  88  11 1662
1477470218.749:    231  88  11 1662
1477470218.749:    241  88  11 1662
1477470218.749:    243  88  11 1662
1477470218.783:    241  88  11 1662
1477470218.783:    242  88  11 1662
1477470218.785:    242  88  11 1662
1477470218.785:    236  88  11 1662
1477470218.785:    221  88  11 1662
1477470218.785:    205  88  11 1662
1477470218.785:    187  88  11 1662
1477470218.785:    166  88  11 1662
1477470218.789:    139  88  11 1662
1477470218.792:    116  88  11 1662
1477470218.792:    109  88  11 1662
1477470218.792:    116  88  11 1662
1477470218.792:    120  88  11 1662
1477470218.793:    116  88  11 1662
1477470218.793:    111  88  11 1662
1477470218.793:    119  88  11 1662
1477470218.794:    141  88  11 1662
1477470218.794:    162  88  11 1662
1477470218.794:    167  88  11 1662
1477470218.794:    158  88  11 1662
1477470218.794:    150  88  11 1662
1477470218.797:    156  88  11 1662
1477470218.805:    168  88  11 1662
1477470218.806:    173  88  11 1662
1477470218.806:    164  88  11 1662
1477470218.806:    152  88  11 1662
1477470218.806:    149  88  11 1662
1477470218.806:    160  88  11 1662
1477470218.806:    181  88  11 1662
1477470218.808:    202  88  11 1662
1477470218.812:    216  88  11 1662
1477470218.812:    224  88  11 1662
1477470218.814:    232  88  11 1662
1477470218.815:    246  88  11 1662
1477470218.816:    267  88  11 1662
1477470218.822:    287  88  11 1662
1477470218.839:    296  88  11 1662
1477470218.840:    294  88  11 1662
1477470218.840:    288  88  11 1662
1477470218.841:    290  88  11 1662
1477470218.842:    299  88  11 1662
1477470218.842:    304  88  11 1662
1477470218.843:    297  88  11 1662
1477470218.845:    285  88  11 1662
1477470218.846:    281  88  11 1662
1477470218.847:    286  88  11 1662
1477470218.858:    290  88  11 1662
1477470218.859:    285  88  11 1662
1477470218.862:    278  88  11 1662
1477470218.863:    282  88  11 1662
1477470218.864:    293  88  11 1662
1477470218.864:    296  88  11 1662
1477470218.882:    285  88  11 1662
1477470218.882:    272  88  11 1662
1477470218.882:    271  88  11 1662
1477470218.883:    283  88  11 1662
1477470218.883:    295  88  11 1662
1477470218.883:    298  88  11 1662
1477470218.883:    299  88  11 1662
1477470218.884:    306  88  11 1662
1477470218.887:    315  88  11 1662
1477470218.887:    316  88  11 1662
1477470218.887:    308  88  11 1662
1477470218.888:    303  88  11 1662
1477470218.888:    306  88  11 1662
1477470218.888:    310  88  11 1662
1477470218.889:    309  88  11 1662
1477470218.889:    305  88  11 1662
1477470218.889:    305  88  11 1662
1477470218.890:    314  88  11 1662
1477470218.890:    325  88  11 1662
1477470218.890:    334  88  11 1662
1477470218.896:    343  88  11 1662
1477470218.897:    356  88  11 1662
1477470218.906:    369  88  11 1662
1477470218.906:    379  88  11 1662
1477470218.906:    380  88  11 1662
1477470218.906:    376  88  11 1662
1477470218.906:    369  88  11 1662
1477470218.908:    363  88  11 1662
1477470218.909:    361  88  11 1662
1477470218.910:    369  88  11 1662
1477470218.912:    386  88  11 1662
1477470218.913:    407  88  11 1662
1477470218.918:    420  88  11 1662
1477470218.918:    427  88  11 1662
1477470218.921:    440  88  11 1662
1477470218.922:    468  88  11 1662
1477470218.923:    505  88  11 1662
1477470218.925:    529  88  11 1662
1477470218.944:    524  88  11 1662
1477470218.944:    501  88  11 1662
1477470218.946:    487  88  11 1662
1477470218.946:    496  88  11 1662
1477470218.947:    516  88  11 1662
1477470218.947:    520  88  11 1662
1477470218.948:    501  88  11 1662
1477470218.949:    475  88  11 1662
1477470218.949:    463  88  11 1662
1477470218.951:    466  88  11 1662
1477470218.951:    468  88  11 1662
1477470218.952:    458  88  11 1662
1477470218.965:    445  88  11 1662
1477470218.965:    441  88  11 1662
1477470218.965:    442  88  11 1662
1477470218.966:    439  88  11 1662
1477470218.966:    431  88  11 1662
1477470218.966:    429  88  11 1662
1477470218.967:    441  88  11 1662
1477470218.967:    454  88  11 1662
1477470218.968:    450  88  11 1662
1477470218.969:    429  88  11 1662
1477470218.970:    411  88  11 1662
1477470218.973:    412  88  11 1662
1477470218.973:    425  88  11 1662
1477470218.977:    429  88  11 1662
1477470218.986:    421  88  11 1662
1477470218.987:    415  88  11 1662
1477470218.987:    423  88  11 1662
1477470218.987:    439  88  11 1662
1477470218.990:    445  88  11 1662
1477470218.990:    438  88  11 1662
1477470218.990:    433  88  11 1662
1477470218.991:    441  88  11 1662
1477470218.995:    458  88  11 1662
1477470218.996:    469  88  11 1662
1477470219.007:    470  88  11 1662
1477470219.008:    473  88  11 1662
1477470219.008:    490  88  11 1662
1477470219.008:    517  88  11 1662
1477470219.008:    539  88  11 1662
1477470219.010:    556  88  11 1662
1477470219.010:    577  88  11 1662
1477470219.011:    605  88  11 1662
1477470219.013:    630  88  11 1662
1477470219.014:    638  88  11 1662
1477470219.017:    637  88  11 1662
1477470219.018:    650  88  11 1662
1477470219.028:    689  88  11 1662
1477470219.029:    744  88  11 1662
1477470219.029:    795  88  11 1662
1477470219.029:    839  88  11 1662
1477470219.029:    884  88  11 1662
1477470219.032:    934  88  11 1662
1477470219.098:    980  88  11 1662
1477470219.098:   1012  88  11 1662
1477470219.098:   1038  88  11 1662
1477470219.099:   1067  88  11 1662
1477470219.099:   1089  88  11 1662
1477470219.099:   1079  88  11 1662
1477470219.099:   1025  88  11 1662
1477470219.099:    951  88  11 1662
1477470219.100:    900  88  11 1662
1477470219.100:    886  88  11 1662
1477470219.100:    882  88  11 1662
1477470219.100:    852  88  11 1662
1477470219.100:    793  88  11 1662
1477470219.100:    735  88  11 1662
1477470219.101:    703  88  11 1662
1477470219.101:    690  88  11 1662
1477470219.114:    675  88  11 1662
1477470219.114:    647  88  11 1662
1477470219.114:    613  88  11 1662
1477470219.114:    576  88  11 1662
1477470219.115:    527  88  11 1662
1477470219.115:    455  88  11 1662
1477470219.115:    371  88  11 1662
1477470219.115:    296  88  11 1662
1477470219.116:    239  88  11 1662
1477470219.116:    193  88  11 1662
1477470219.116:    147  88  11 1662
1477470219.117:    103  88  11 1662
1477470219.117:     74  88  11 1662
1477470219.122:     60  88  11 1662
1477470219.122:     51  88  11 1662
1477470219.122:     41  88  11 1662
1477470219.123:     40  88  11 1662
1477470219.125:     55  88  11 1662
1477470219.126:     76  88  11 1662
1477470219.126:     83  88  11 1662
1477470219.126:     73  88  11 1662
1477470219.126:     56  88  11 1662
1477470219.127:     50  88  11 1662
1477470219.129:     53  88  11 1662
1477470219.129:     55  88  11 1662
1477470219.129:     52  88  11 1662
1477470219.129:     50  88  11 1662
1477470219.130:     53  88  11 1662
1477470219.130:     55  88  11 1662
1477470219.131:     47  88  11 1662
1477470219.131:     32  88  11 1662
1477470219.131:     28  88  11 1662
1477470219.132:     43  88  11 1662
1477470219.132:     65  88  11 1662
1477470219.133:     71  88  11 1662
1477470219.133:     56  88  11 1662
1477470219.137:     44  88  11 1662
1477470219.140:     57  88  11 1662
1477470219.140:     98  88  11 1662
1477470219.140:    153  88  11 1662
1477470219.147:    213  88  11 1662
1477470219.147:    291  88  11 1662
1477470219.158:    397  88  11 1662
1477470219.158:    522  88  11 1662
1477470219.158:    644  88  11 1662
1477470219.158:    757  88  11 1662
1477470219.158:    891  88  11 1662
1477470219.158:   1087  88  11 1662
1477470219.159:   1351  88  11 1662
1477470219.159:   1652  88  11 1662
1477470219.164:   1953  88  11 1662
1477470219.164:   2246  88  11 1662
1477470219.166:   2558  88  11 1662
1477470219.167:   2927  88  11 1662
1477470219.174:   3354  88  11 1662
1477470219.174:   3784  88  11 1662
1477470219.197:   4103  88  11 1662
1477470219.198:   4197  88  11 1662
1477470219.198:   4021  88  11 1662
1477470219.199:   3601  88  11 1662
1477470219.199:   2981  88  11 1662
1477470219.200:   2149  88  11 1662
1477470219.200:   1071  88  11 1662
1477470219.200:   -206  88  11 1662
1477470219.201:  -1496  88  11 1662
1477470219.205:  -2564  88  11 1662
1477470219.205:  -3294  88  11 1662
1477470219.206:  -3745  88  11 1662
1477470219.206:  -4041  88  11 1662
1477470219.206:  -4213  88  11 1662
1477470219.207:  -4169  88  11 1662
1477470219.208:  -3834  88  11 1662
1477470219.221:  -3275  88  11 1662
1477470219.221:  -2680  88  11 1662
1477470219.221:  -2218  88  11 1662
1477470219.221:  -1921  88  11 1662
1477470219.222:  -1712  88  11 1662
1477470219.224:  -1499  88  11 1662
1477470219.225:  -1252  88  11 1662
1477470219.225:  -1003  88  11 1662
1477470219.227:   -794  88  11 1662
1477470219.227:   -642  88  11 1662
1477470219.229:   -526  88  11 1662
1477470219.230:   -402  88  11 1662
1477470219.241:   -239  88  11 1662
1477470219.241:    -49  88  11 1662
1477470219.242:    117  88  11 1662
1477470219.242:    211  88  11 1662
1477470219.242:    238  88  11 1662
1477470219.242:    240  88  11 1662
1477470219.242:    257  88  11 1662
1477470219.244:    294  88  11 1662
1477470219.247:    331  88  11 1662
1477470219.248:    369  88  11 1662
1477470219.249:    431  88  11 1662
1477470219.252:    525  88  11 1662
1477470219.261:    619  88  11 1662
1477470219.262:    663  88  11 1662
1477470219.263:    639  88  11 1662
1477470219.263:    581  88  11 1662
1477470219.264:    538  88  11 1662
1477470219.266:    533  88  11 1662
1477470219.267:    555  88  11 1662
1477470219.268:    586  88  11 1662
1477470219.269:    615  88  11 1662
1477470219.270:    635  88  11 1662
1477470219.281:    635  88  11 1662
1477470219.281:    606  88  11 1662
1477470219.282:    560  88  11 1662
1477470219.282:    522  88  11 1662
1477470219.287:    510  88  11 1662
1477470219.288:    517  88  11 1662
1477470219.288:    528  88  11 1662
1477470219.289:    537  88  11 1662
1477470219.290:    550  88  11 1662
1477470219.291:    571  88  11 1662
1477470219.294:    593  88  11 1662
1477470219.299:    605  88  11 1662
1477470219.300:    612  88  11 1662
1477470219.300:    622  88  11 1662
1477470219.316:    636  88  11 1662
1477470219.316:    648  88  11 1662
1477470219.317:    654  88  11 1662
1477470219.318:    660  88  11 1662
1477470219.318:    678  88  11 1662
1477470219.319:    707  88  11 1662
1477470219.320:    734  88  11 1662
1477470219.320:    752  88  11 1662
1477470219.321:    762  88  11 1662
1477470219.321:    776  88  11 1662
1477470219.322:    797  88  11 1662
1477470219.325:    823  88  11 1662
1477470219.326:    853  88  11 1662
1477470219.327:    883  88  11 1662
1477470219.328:    914  88  11 1662
1477470219.329:    943  88  11 1662
1477470219.332:    968  88  11 1662
1477470219.334:    994  88  11 1662
1477470219.345:   1029  88  11 1662
1477470219.345:   1072  88  11 1662
1477470219.345:   1111  88  11 1662
1477470219.345:   1141  88  11 1662
1477470219.346:   1164  88  11 1662
1477470219.346:   1187  88  11 1662
1477470219.349:   1209  88  11 1662
1477470219.352:   1226  88  11 1662
1477470219.362:   1237  88  11 1662
1477470219.362:   1245  88  11 1662
1477470219.363:   1256  88  11 1662
1477470219.363:   1270  88  11 1662
1477470219.363:   1282  88  11 1662
1477470219.363:   1296  88  11 1662
1477470219.366:   1321  88  11 1662
1477470219.366:   1356  88  11 1662
1477470219.368:   1387  88  11 1662
1477470219.369:   1400  88  11 1662
1477470219.379:   1400  88  11 1662
1477470219.379:   1408  88  11 1662
1477470219.380:   1434  88  11 1662
1477470219.380:   1466  88  11 1662
1477470219.380:   1482  88  11 1662
1477470219.381:   1475  88  11 1662
1477470219.383:   1459  88  11 1662
1477470219.384:   1453  88  11 1662
1477470219.386:   1456  88  11 1662
1477470219.389:   1453  88  11 1662
1477470219.399:   1433  88  11 1662
1477470219.400:   1402  88  11 1662
1477470219.401:   1372  88  11 1662
1477470219.401:   1350  88  11 1662
1477470219.401:   1329  88  11 1662
1477470219.402:   1300  88  11 1662
1477470219.403:   1264  88  11 1662
1477470219.407:   1227  88  11 1662
1477470219.407:   1197  88  11 1662
1477470219.409:   1172  88  11 1662
1477470219.411:   1144  88  11 1662
1477470219.412:   1108  88  11 1662
1477470219.425:   1069  88  11 1662
1477470219.425:   1039  88  11 1662
1477470219.425:   1022  88  11 1662
1477470219.426:   1014  88  11 1662
1477470219.426:   1002  88  11 1662
1477470219.426:    972  88  11 1662
1477470219.426:    926  88  11 1662
1477470219.430:    875  88  11 1662
1477470219.431:    830  88  11 1662
1477470219.437:    791  88  11 1662
1477470219.444:    747  88  11 1662
1477470219.445:    693  88  11 1662
1477470219.445:    635  88  11 1662
1477470219.445:    583  88  11 1662
1477470219.445:    541  88  11 1662
1477470219.445:    505  88  11 1662
1477470219.449:    476  88  11 1662
1477470219.449:    457  88  11 1662
1477470219.452:    441  88  11 1662
1477470219.452:    413  88  11 1662
1477470219.452:    366  88  11 1662
1477470219.455:    316  88  11 1662
1477470219.457:    286  88  11 1662
1477470219.461:    279  88  11 1662
1477470219.462:    269  88  11 1662
1477470219.464:    233  88  11 1662
1477470219.465:    181  88  11 1662
1477470219.467:    144  88  11 1662
1477470219.483:    141  88  11 1662
1477470219.483:    153  88  11 1662
1477470219.483:    149  88  11 1662
1477470219.483:    119  88  11 1662
1477470219.483:     83  88  11 1662
1477470219.483:     63  88  11 1662
1477470219.483:     58  88  11 1662
1477470219.484:     54  88  11 1662
1477470219.486:     40  88  11 1662
1477470219.489:     15  88  11 1662
1477470219.490:    -10  88  11 1662
1477470219.491:    -24  88  11 1662
1477470219.493:    -26  88  11 1662
1477470219.494:    -23  88  11 1662
1477470219.503:    -23  88  11 1662
1477470219.503:    -25  88  11 1662
1477470219.503:    -26  88  11 1662
1477470219.503:    -23  88  11 1662
1477470219.505:    -17  88  11 1662
1477470219.506:    -14  88  11 1662
1477470219.507:    -17  88  11 1662
1477470219.510:    -21  88  11 1662
1477470219.513:    -23  88  11 1662
1477470219.513:    -22  88  11 1662
1477470219.516:    -20  88  11 1662
1477470219.517:    -16  88  11 1662
1477470219.526:    -17  88  11 1662
1477470219.526:    -25  88  11 1662
1477470219.526:    -41  88  11 1662
1477470219.527:    -52  88  11 1662
1477470219.528:    -48  88  11 1662
1477470219.530:    -29  88  11 1662
1477470219.531:    -12  88  11 1662
1477470219.536:     -9  88  11 1662
1477470219.554:    -12  88  11 1662
1477470219.554:     -2  88  11 1662
1477470219.554:     26  88  11 1662
1477470219.554:     58  88  11 1662
1477470219.555:     78  88  11 1662
1477470219.555:     80  88  11 1662
1477470219.555:     76  88  11 1662
1477470219.555:     76  88  11 1662
1477470219.555:     77  88  11 1662
1477470219.555:     77  88  11 1662
1477470219.556:     76  88  11 1662
1477470219.558:     78  88  11 1662
1477470219.559:     82  88  11 1662
1477470219.563:     83  88  11 1662
1477470219.563:     82  88  11 1662
1477470219.565:     85  88  11 1662
1477470219.596:    100  88  11 1662
1477470219.596:    125  88  11 1662
1477470219.597:    152  88  11 1662
1477470219.597:    172  88  11 1662
1477470219.597:    183  88  11 1662
1477470219.597:    191  88  11 1662
1477470219.597:    198  88  11 1662
1477470219.597:    205  88  11 1662
1477470219.598:    213  88  11 1662
1477470219.598:    220  88  11 1662
1477470219.598:    225  88  11 1662
1477470219.598:    229  88  11 1662
1477470219.598:    233  88  11 1662
1477470219.598:    244  88  11 1662
1477470219.598:    262  88  11 1662
1477470219.599:    280  88  11 1662
1477470219.599:    289  88  11 1662
1477470219.600:    289  88  11 1662
1477470219.607:    293  88  11 1662
1477470219.607:    310  88  11 1662
1477470219.608:    331  88  11 1662
1477470219.610:    335  88  11 1662
1477470219.611:    317  88  11 1662
1477470219.614:    292  88  11 1662
1477470219.616:    279  88  11 1662
1477470219.618:    275  88  11 1662
1477470219.647:    267  88  11 1662
1477470219.647:    256  88  11 1662
1477470219.647:    265  88  11 1662
1477470219.647:    311  88  11 1662
1477470219.647:    373  88  11 1662
1477470219.647:    410  88  11 1662
1477470219.648:    416  88  11 1662
1477470219.648:    429  88  11 1662
1477470219.648:    485  88  11 1662
1477470219.648:    558  88  11 1662
1477470219.649:    576  88  11 1662
1477470219.649:    495  88  11 1662
1477470219.649:    349  88  11 1662
1477470219.649:    216  88  11 1662
1477470219.649:    127  88  11 1662
1477470219.650:     48  88  11 1662
1477470219.650:    -73  88  11 1662
1477470219.651:   -238  88  11 1662
1477470219.652:   -404  88  11 1662
1477470219.655:   -527  88  11 1662
1477470219.659:   -608  88  11 1662
1477470219.659:   -671  88  11 1662
1477470219.663:   -736  88  11 1662
1477470219.663:   -821  88  11 1662
1477470219.665:   -944  88  11 1662
1477470219.666:  -1124  88  11 1662
1477470219.673:  -1355  88  11 1662
1477470219.673:  -1604  88  11 1662
1477470219.696:  -1840  88  11 1662
1477470219.696:  -2061  88  11 1662
1477470219.696:  -2289  88  11 1662
1477470219.697:  -2533  88  11 1662
1477470219.697:  -2768  88  11 1662
1477470219.697:  -2945  88  11 1662
1477470219.698:  -3029  88  11 1662
1477470219.698:  -3018  88  11 1662
1477470219.698:  -2941  88  11 1662
1477470219.699:  -2825  88  11 1662
1477470219.699:  -2675  88  11 1662
1477470219.699:  -2463  88  11 1662
1477470219.700:  -2167  88  11 1662
1477470219.700:  -1798  88  11 1662
1477470219.701:  -1406  88  11 1662
1477470219.706:  -1035  88  11 1662
1477470219.706:   -689  88  11 1662
1477470219.706:   -345  88  11 1662
1477470219.709:     -3  88  11 1662
1477470219.710:    298  88  11 1662
1477470219.737:    511  88  11 1662
1477470219.738:    649  88  11 1662
1477470219.738:    766  88  11 1662
1477470219.738:    893  88  11 1662
1477470219.738:    992  88  11 1662
1477470219.738:   1007  88  11 1662
1477470219.738:    951  88  11 1662
1477470219.739:    910  88  11 1662
1477470219.739:    959  88  11 1662
1477470219.739:   1084  88  11 1662
1477470219.739:   1195  88  11 1662
1477470219.740:   1226  88  11 1662
1477470219.740:   1200  88  11 1662
1477470219.740:   1195  88  11 1662
1477470219.741:   1247  88  11 1662
1477470219.742:   1322  88  11 1662
1477470219.743:   1357  88  11 1662
1477470219.746:   1325  88  11 1662
1477470219.747:   1256  88  11 1662
1477470219.750:   1196  88  11 1662
1477470219.754:   1170  88  11 1662
1477470219.755:   1160  88  11 1662
1477470219.791:   1136  88  11 1662
1477470219.791:   1083  88  11 1662
1477470219.791:   1015  88  11 1662
1477470219.791:    961  88  11 1662
1477470219.791:    936  88  11 1662
1477470219.792:    933  88  11 1662
1477470219.792:    931  88  11 1662
1477470219.792:    926  88  11 1662
1477470219.794:    934  88  11 1662
1477470219.795:    969  88  11 1662
1477470219.797:   1028  88  11 1662
1477470219.798:   1089  88  11 1662
1477470219.798:   1135  88  11 1662
1477470219.798:   1168  88  11 1662
1477470219.798:   1197  88  11 1662
1477470219.798:   1234  88  11 1662
1477470219.798:   1278  88  11 1662
1477470219.799:   1322  88  11 1662
1477470219.799:   1350  88  11 1662
1477470219.800:   1352  88  11 1662
1477470219.800:   1335  88  11 1662
1477470219.801:   1323  88  11 1662
1477470219.834:   1339  88  11 1662
1477470219.834:   1375  88  11 1662
1477470219.835:   1403  88  11 1662
1477470219.835:   1404  88  11 1662
1477470219.835:   1397  88  11 1662
1477470219.835:   1412  88  11 1662
1477470219.835:   1455  88  11 1662
1477470219.835:   1500  88  11 1662
1477470219.836:   1522  88  11 1662
1477470219.836:   1526  88  11 1662
1477470219.836:   1539  88  11 1662
1477470219.836:   1575  88  11 1662
1477470219.837:   1620  88  11 1662
1477470219.837:   1653  88  11 1662
1477470219.837:   1671  88  11 1662
1477470219.837:   1689  88  11 1662
1477470219.837:   1712  88  11 1662
1477470219.837:   1737  88  11 1662
1477470219.838:   1759  88  11 1662
1477470219.838:   1785  88  11 1662
1477470219.840:   1827  88  11 1662
1477470219.841:   1884  88  11 1662
1477470219.842:   1940  88  11 1662
1477470219.844:   1988  88  11 1662
1477470219.846:   2035  88  11 1662
1477470219.850:   2091  88  11 1662
1477470219.857:   2157  88  11 1662
1477470219.858:   2222  88  11 1662
1477470219.858:   2276  88  11 1662
1477470219.858:   2319  88  11 1662
1477470219.858:   2357  88  11 1662
1477470219.860:   2394  88  11 1662
1477470219.864:   2426  88  11 1662
1477470219.864:   2451  88  11 1662
1477470219.866:   2465  88  11 1662
1477470219.868:   2469  88  11 1662
1477470219.879:   2460  88  11 1662
1477470219.880:   2437  88  11 1662
1477470219.880:   2406  88  11 1662
1477470219.880:   2369  88  11 1662
1477470219.881:   2328  88  11 1662
1477470219.882:   2273  88  11 1662
1477470219.882:   2202  88  11 1662
1477470219.882:   2121  88  11 1662
1477470219.885:   2035  88  11 1662
1477470219.887:   1942  88  11 1662
1477470219.892:   1830  88  11 1662
1477470219.892:   1699  88  11 1662
1477470219.901:   1561  88  11 1662
1477470219.902:   1435  88  11 1662
1477470219.903:   1319  88  11 1662
1477470219.903:   1196  88  11 1662
1477470219.904:   1050  88  11 1662
1477470219.906:    888  88  11 1662
1477470219.907:    731  88  11 1662
1477470219.907:    591  88  11 1662
1477470219.908:    465  88  11 1662
1477470219.910:    342  88  11 1662
1477470219.921:    216  88  11 1662
1477470219.922:     87  88  11 1662
1477470219.922:    -40  88  11 1662
1477470219.922:   -155  88  11 1662
1477470219.922:   -247  88  11 1662
1477470219.924:   -312  88  11 1662
1477470219.925:   -361  88  11 1662
1477470219.926:   -413  88  11 1662
1477470219.929:   -477  88  11 1662
1477470219.933:   -542  88  11 1662
1477470219.945:   -591  88  11 1662
1477470219.945:   -618  88  11 1662
1477470219.945:   -636  88  11 1662
1477470219.945:   -657  88  11 1662
1477470219.945:   -681  88  11 1662
1477470219.946:   -700  88  11 1662
1477470219.969:   -711  88  11 1662
1477470219.969:   -715  88  11 1662
1477470219.971:   -710  88  11 1662
1477470219.972:   -690  88  11 1662
1477470219.982:   -655  88  11 1662
1477470219.982:   -612  88  11 1662
1477470219.982:   -576  88  11 1662
1477470219.983:   -551  88  11 1662
1477470219.983:   -529  88  11 1662
1477470219.983:   -501  88  11 1662
1477470219.983:   -466  88  11 1662
1477470219.983:   -432  88  11 1662
1477470219.983:   -407  88  11 1662
1477470219.984:   -390  88  11 1662
1477470219.984:   -376  88  11 1662
1477470219.984:   -363  88  11 1662
1477470219.985:   -353  88  11 1662
1477470219.985:   -342  88  11 1662
1477470219.985:   -326  88  11 1662
1477470219.985:   -299  88  11 1662
1477470219.987:   -264  88  11 1662
1477470219.989:   -234  88  11 1662
1477470219.989:   -218  88  11 1662
1477470219.992:   -214  88  11 1662
1477470220.003:   -214  88  11 1662
1477470220.003:   -212  88  11 1662
1477470220.003:   -205  88  11 1662
1477470220.004:   -196  88  11 1662
1477470220.004:   -192  88  11 1662
1477470220.004:   -198  88  11 1662
1477470220.004:   -211  88  11 1662
1477470220.006:   -219  88  11 1662
1477470220.008:   -209  88  11 1662
1477470220.012:   -181  88  11 1662
1477470220.012:   -153  88  11 1662
1477470220.014:   -142  88  11 1662
1477470220.015:   -147  88  11 1662
1477470220.023:   -148  88  11 1662
1477470220.051:   -132  88  11 1662
1477470220.051:   -104  88  11 1662
1477470220.052:    -83  88  11 1662
1477470220.052:    -77  88  11 1662
1477470220.052:    -76  88  11 1662
1477470220.052:    -65  88  11 1662
1477470220.052:    -43  88  11 1662
1477470220.052:    -25  88  11 1662
1477470220.052:    -18  88  11 1662
1477470220.053:    -19  88  11 1662
1477470220.053:    -15  88  11 1662
1477470220.053:     -2  88  11 1662
1477470220.053:     16  88  11 1662
1477470220.053:     32  88  11 1662
1477470220.054:     43  88  11 1662
1477470220.054:     52  88  11 1662
1477470220.054:     63  88  11 1662
1477470220.054:     73  88  11 1662
1477470220.055:     83  88  11 1662
1477470220.056:     92  88  11 1662
1477470220.057:     98  88  11 1662
1477470220.062:    102  88  11 1662
1477470220.062:     99  88  11 1662
1477470220.063:     89  88  11 1662
1477470220.065:     78  88  11 1662
1477470220.067:     77  88  11 1662
1477470220.070:     92  88  11 1662
1477470220.071:    114  88  11 1662
1477470220.097:    126  88  11 1662
1477470220.097:    124  88  11 1662
1477470220.097:    120  88  11 1662
1477470220.097:    124  88  11 1662
1477470220.097:    131  88  11 1662
1477470220.098:    124  88  11 1662
1477470220.098:    100  88  11 1662
1477470220.098:     76  88  11 1662
1477470220.098:     74  88  11 1662
1477470220.099:     95  88  11 1662
1477470220.099:    117  88  11 1662
1477470220.099:    122  88  11 1662
1477470220.099:    119  88  11 1662
1477470220.099:    127  88  11 1662
1477470220.103:    153  88  11 1662
1477470220.104:    185  88  11 1662
1477470220.105:    202  88  11 1662
1477470220.106:    201  88  11 1662
1477470220.109:    197  88  11 1662
1477470220.111:    201  88  11 1662
1477470220.114:    208  88  11 1662
1477470220.119:    210  88  11 1662
1477470220.140:    207  88  11 1662
1477470220.140:    209  88  11 1662
1477470220.141:    217  88  11 1662
1477470220.141:    221  77  10  886
1477470220.141:    213  77  10  886
1477470220.141:    200  77  10  886
1477470220.141:    199  77  10  886
1477470220.142:    214  77  10  886
1477470220.142:    230  77  10  886
1477470220.142:    229  77  10  886
1477470220.142:    213  77  10  886
1477470220.142:    201  77  10  886
1477470220.143:    201  77  10  886
1477470220.144:    208  77  10  886
1477470220.144:    207  77  10  886
1477470220.146:    196  77  10  886
1477470220.148:    183  77  10  886
1477470220.149:    176  77  10  886
1477470220.153:    171  77  10  886
1477470220.153:    162  77  10  886
1477470220.158:    154  77  10  886
1477470220.158:    153  77  10  886
1477470220.184:    160  77  10  886
1477470220.184:    167  77  10  886
1477470220.184:    166  77  10  886
1477470220.184:    158  77  10  886
1477470220.185:    152  77  10  886
1477470220.185:    152  77  10  886
1477470220.185:    155  77  10  886
1477470220.185:    150  77  10  886
1477470220.186:    139  77  10  886
1477470220.186:    130  77  10  886
1477470220.186:    131  77  10  886
1477470220.186:    141  77  10  886
1477470220.186:    156  77  10  886
1477470220.186:    168  77  10  886
1477470220.189:    174  77  10  886
1477470220.190:    174  77  10  886
1477470220.191:    175  77  10  886
1477470220.192:    183  77  10  886
1477470220.198:    200  77  10  886
1477470220.198:    221  77  10  886
1477470220.204:    238  77  10  886
1477470220.204:    251  77  10  886
1477470220.205:    271  77  10  886
1477470220.205:    302  77  10  886
1477470220.206:    335  77  10  886
1477470220.213:    354  77  10  886
1477470220.213:    356  77  10  886
1477470220.213:    354  77  10  886
1477470220.215:    362  77  10  886
1477470220.219:    376  77  10  886
1477470220.231:    380  77  10  886
1477470220.232:    370  77  10  886
1477470220.232:    358  77  10  886
1477470220.232:    361  77  10  886
1477470220.232:    379  77  10  886
1477470220.233:    398  77  10  886
1477470220.233:    409  77  10  886
1477470220.233:    415  77  10  886
1477470220.235:    425  77  10  886
1477470220.239:    441  77  10  886
1477470220.250:    456  77  10  886
1477470220.251:    462  77  10  886
1477470220.251:    455  77  10  886
1477470220.251:    438  77  10  886
1477470220.251:    420  77  10  886
1477470220.252:    411  77  10  886
1477470220.252:    412  77  10  886
1477470220.253:    415  77  10  886
1477470220.253:    407  77  10  886
1477470220.258:    392  77  10  886
1477470220.269:    383  77  10  886
1477470220.270:    389  77  10  886
1477470220.270:    400  77  10  886
1477470220.270:    402  77  10  886
1477470220.270:    387  77  10  886
1477470220.270:    365  77  10  886
1477470220.272:    348  77  10  886
1477470220.272:    336  77  10  886
1477470220.273:    326  77  10  886
1477470220.276:    317  77  10  886
1477470220.281:    314  77  10  886
1477470220.282:    319  77  10  886
1477470220.290:    324  77  10  886
1477470220.290:    318  77  10  886
1477470220.290:    305  77  10  886
1477470220.291:    296  77  10  886
1477470220.291:    299  77  10  886
1477470220.292:    308  77  10  886
1477470220.298:    310  77  10  886
1477470220.299:    302  77  10  886
1477470220.312:    289  77  10  886
1477470220.312:    284  77  10  886
1477470220.312:    293  77  10  886
1477470220.312:    312  77  10  886
1477470220.312:    327  77  10  886
1477470220.313:    331  77  10  886
1477470220.313:    323  77  10  886
1477470220.313:    316  77  10  886
1477470220.314:    315  77  10  886
1477470220.315:    318  77  10  886
1477470220.317:    313  77  10  886
1477470220.323:    300  77  10  886
1477470220.332:    290  77  10  886
1477470220.332:    295  77  10  886
1477470220.332:    307  77  10  886
1477470220.332:    312  77  10  886
1477470220.333:    303  77  10  886
1477470220.334:    297  77  10  886
1477470220.336:    309  77  10  886
1477470220.336:    335  77  10  886
1477470220.337:    349  77  10  886
1477470220.339:    343  77  10  886
1477470220.340:    333  77  10  886
1477470220.342:    337  77  10  886
1477470220.345:    354  77  10  886
1477470220.349:    366  77  10  886
1477470220.350:    363  77  10  886
1477470220.351:    360  77  10  886
1477470220.352:    370  77  10  886
1477470220.354:    384  77  10  886
1477470220.356:    385  77  10  886
1477470220.359:    372  77  10  886
1477470220.363:    363  77  10  886
1477470220.363:    367  77  10  886
1477470220.393:    372  77  10  886
1477470220.394:    363  77  10  886
1477470220.394:    343  77  10  886
1477470220.395:    335  77  10  886
1477470220.395:    350  77  10  886
1477470220.396:    374  77  10  886
1477470220.396:    384  77  10  886
1477470220.397:    380  77  10  886
1477470220.397:    377  77  10  886
1477470220.398:    389  77  10  886
1477470220.398:    408  77  10  886
1477470220.399:    417  77  10  886
1477470220.399:    416  77  10  886
1477470220.399:    417  77  10  886
1477470220.400:    434  77  10  886
1477470220.400:    458  77  10  886
1477470220.401:    475  77  10  886
1477470220.401:    474  77  10  886
1477470220.415:    464  77  10  886
1477470220.415:    461  77  10  886
1477470220.416:    473  77  10  886
1477470220.416:    495  77  10  886
1477470220.416:    517  77  10  886
1477470220.416:    531  77  10  886
1477470220.416:    541  77  10  886
1477470220.416:    550  77  10  886
1477470220.421:    559  77  10  886
1477470220.421:    571  77  10  886
1477470220.422:    589  77  10  886
1477470220.424:    620  77  10  886
1477470220.427:    659  77  10  886
1477470220.427:    699  77  10  886
1477470220.434:    732  77  10  886
1477470220.434:    763  77  10  886
1477470220.435:    804  77  10  886
1477470220.436:    860  77  10  886
1477470220.436:    917  77  10  886
1477470220.437:    957  77  10  886
1477470220.439:    969  77  10  886
1477470220.441:    963  77  10  886
1477470220.446:    960  77  10  886
1477470220.505:    962  77  10  886
1477470220.532:    955  77  10  886
1477470220.532:    923  77  10  886
1477470220.532:    869  77  10  886
1477470220.532:    814  77  10  886
1477470220.532:    780  77  10  886
1477470220.533:    766  77  10  886
1477470220.533:    751  77  10  886
1477470220.533:    719  77  10  886
1477470220.533:    673  77  10  886
1477470220.533:    632  77  10  886
1477470220.533:    610  77  10  886
1477470220.534:    596  77  10  886
1477470220.534:    565  77  10  886
1477470220.534:    506  77  10  886
1477470220.534:    432  77  10  886
1477470220.534:    369  77  10  886
1477470220.535:    330  77  10  886
1477470220.535:    305  77  10  886
1477470220.535:    275  77  10  886
1477470220.535:    238  77  10  886
1477470220.535:    208  77  10  886
1477470220.536:    198  77  10  886
1477470220.536:    200  77  10  886
1477470220.536:    196  77  10  886
1477470220.536:    180  77  10  886
1477470220.537:    168  77  10  886
1477470220.537:    173  77  10  886
1477470220.537:    192  77  10  886
1477470220.537:    200  77  10  886
1477470220.537:    187  77  10  886
1477470220.537:    165  77  10  886
1477470220.538:    156  77  10  886
1477470220.538:    166  77  10  886
1477470220.538:    180  77  10  886
1477470220.538:    182  77  10  886
1477470220.538:    173  77  10  886
1477470220.538:    169  77  10  886
1477470220.540:    179  77  10  886
1477470220.540:    198  77  10  886
1477470220.540:    212  77  10  886
1477470220.540:    219  77  10  886
1477470220.540:    227  77  10  886
1477470220.540:    243  77  10  886
1477470220.541:    258  77  10  886
1477470220.541:    262  77  10  886
1477470220.541:    259  77  10  886
1477470220.541:    266  77  10  886
1477470220.541:    297  77  10  886
1477470220.541:    341  77  10  886
1477470220.543:    387  77  10  886
1477470220.547:    437  77  10  886
1477470220.547:    515  77  10  886
1477470220.548:    633  77  10  886
1477470220.550:    773  77  10  886
1477470220.554:    905  77  10  886
1477470220.555:   1031  77  10  886
1477470220.588:   1190  77  10  886
1477470220.588:   1415  77  10  886
1477470220.588:   1697  77  10  886
1477470220.588:   1996  77  10  886
1477470220.588:   2278  77  10  886
1477470220.588:   2557  77  10  886
1477470220.589:   2878  77  10  886
1477470220.589:   3257  77  10  886
1477470220.589:   3651  77  10  886
1477470220.589:   3956  77  10  886
1477470220.589:   4063  77  10  886
1477470220.589:   3916  77  10  886
1477470220.590:   3526  77  10  886
1477470220.590:   2928  77  10  886
1477470220.590:   2122  77  10  886
1477470220.590:   1094  77  10  886
1477470220.591:   -110  77  10  886
1477470220.591:  -1331  77  10  886
1477470220.592:  -2366  77  10  886
1477470220.593:  -3096  77  10  886
1477470220.595:  -3557  77  10  886
1477470220.597:  -3854  77  10  886
1477470220.601:  -4024  77  10  886
1477470220.602:  -3997  77  10  886
1477470220.606:  -3703  77  10  886
1477470220.606:  -3197  77  10  886
1477470220.631:  -2645  77  10  886
1477470220.632:  -2207  77  10  886
1477470220.632:  -1917  77  10  886
1477470220.632:  -1701  77  10  886
1477470220.632:  -1473  77  10  886
1477470220.632:  -1212  77  10  886
1477470220.632:   -950  77  10  886
1477470220.632:   -728  77  10  886
1477470220.633:   -551  77  10  886
1477470220.633:   -395  77  10  886
1477470220.633:   -234  77  10  886
1477470220.633:    -63  77  10  886
1477470220.634:    105  77  10  886
1477470220.634:    246  77  10  886
1477470220.637:    344  77  10  886
1477470220.639:    396  77  10  886
1477470220.640:    413  77  10  886
1477470220.645:    412  77  10  886
1477470220.658:    418  77  10  886
1477470220.658:    452  77  10  886
1477470220.658:    525  77  10  886
1477470220.658:    627  77  10  886
1477470220.658:    728  77  10  886
1477470220.658:    794  77  10  886
1477470220.659:    815  77  10  886
1477470220.659:    799  77  10  886
1477470220.661:    766  77  10  886
1477470220.662:    736  77  10  886
1477470220.662:    721  77  10  886
1477470220.663:    726  77  10  886
1477470220.670:    749  77  10  886
1477470220.670:    780  77  10  886
1477470220.682:    800  77  10  886
1477470220.682:    799  77  10  886
1477470220.682:    776  77  10  886
1477470220.683:    741  77  10  886
1477470220.683:    708  77  10  886
1477470220.683:    687  77  10  886
1477470220.683:    683  77  10  886
1477470220.683:    692  77  10  886
1477470220.688:    707  77  10  886
1477470220.688:    721  77  10  886
1477470220.690:    729  77  10  886
1477470220.691:    732  77  10  886
1477470220.697:    725  77  10  886
1477470220.697:    712  77  10  886
1477470220.699:    697  77  10  886
1477470220.699:    693  77  10  886
1477470220.701:    704  77  10  886
1477470220.705:    723  77  10  886
1477470220.705:    738  77  10  886
1477470220.710:    744  77  10  886
1477470220.710:    751  77  10  886
1477470220.711:    771  77  10  886
1477470220.715:    803  77  10  886
1477470220.715:    838  77  10  886
1477470220.725:    874  77  10  886
1477470220.725:    917  77  10  886
1477470220.725:    968  77  10  886
1477470220.726:   1014  77  10  886
1477470220.726:   1044  77  10  886
1477470220.729:   1064  77  10  886
1477470220.730:   1094  77  10  886
1477470220.731:   1138  77  10  886
1477470220.732:   1179  77  10  886
1477470220.738:   1194  77  10  886
1477470220.754:   1186  77  10  886
1477470220.754:   1180  77  10  886
1477470220.754:   1195  77  10  886
1477470220.755:   1227  77  10  886
1477470220.755:   1255  77  10  886
1477470220.755:   1273  77  10  886
1477470220.756:   1286  77  10  886
1477470220.756:   1302  77  10  886
1477470220.756:   1321  77  10  886
1477470220.756:   1338  77  10  886
1477470220.758:   1359  77  10  886
1477470220.794:   1387  77  10  886
1477470220.794:   1417  77  10  886
1477470220.794:   1434  77  10  886
1477470220.814:   1437  77  10  886
1477470220.815:   1437  77  10  886
1477470220.816:   1450  77  10  886
1477470220.817:   1480  77  10  886
1477470220.818:   1511  77  10  886
1477470220.819:   1533  77  10  886
1477470220.819:   1548  77  10  886
1477470220.820:   1561  77  10  886
1477470220.821:   1573  77  10  886
1477470220.821:   1577  77  10  886
1477470220.824:   1573  77  10  886
1477470220.824:   1564  77  10  886
1477470220.824:   1554  77  10  886
1477470220.825:   1537  77  10  886
1477470220.851:   1510  77  10  886
1477470220.851:   1473  77  10  886
1477470220.851:   1434  77  10  886
1477470220.851:   1396  77  10  886
1477470220.852:   1358  77  10  886
1477470220.852:   1317  77  10  886
1477470220.852:   1274  77  10  886
1477470220.852:   1228  77  10  886
1477470220.852:   1176  77  10  886
1477470220.852:   1119  77  10  886
1477470220.853:   1067  77  10  886
1477470220.853:   1028  77  10  886
1477470220.853:    999  77  10  886
1477470220.853:    966  77  10  886
1477470220.853:    923  77  10  886
1477470220.854:    884  77  10  886
1477470220.855:    862  77  10  886
1477470220.856:    858  77  10  886
1477470220.856:    853  77  10  886
1477470220.856:    833  77  10  886
1477470220.857:    798  77  10  886
1477470220.858:    761  77  10  886
1477470220.858:    730  77  10  886
1477470220.858:    704  77  10  886
1477470220.858:    680  77  10  886
1477470220.858:    652  77  10  886
1477470220.858:    616  77  10  886
1477470220.858:    568  77  10  886
1477470220.858:    515  77  10  886
1477470220.859:    475  77  10  886
1477470220.859:    457  77  10  886
1477470220.859:    448  77  10  886
1477470220.859:    418  77  10  886
1477470220.859:    360  77  10  886
1477470220.862:    302  77  10  886
1477470220.862:    276  77  10  886
1477470220.863:    282  77  10  886
1477470220.864:    283  77  10  886
1477470220.866:    250  77  10  886
1477470220.870:    193  77  10  886
1477470220.871:    155  77  10  886
1477470220.875:    159  77  10  886
1477470220.887:    184  77  10  886
1477470220.888:    193  77  10  886
1477470220.888:    172  77  10  886
1477470220.888:    141  77  10  886
1477470220.889:    130  77  10  886
1477470220.889:    140  77  10  886
1477470220.889:    152  77  10  886
1477470220.890:    145  77  10  886
1477470220.891:    123  77  10  886
1477470220.892:    100  77  10  886
1477470220.893:     88  77  10  886
1477470220.896:     88  77  10  886
1477470220.898:     93  77  10  886
1477470220.903:     97  77  10  886
1477470220.911:     95  77  10  886
1477470220.911:     88  77  10  886
1477470220.911:     84  77  10  886
1477470220.911:     91  77  10  886
1477470220.911:    109  77  10  886
1477470220.913:    131  77  10  886
1477470220.916:    147  77  10  886
1477470220.917:    152  77  10  886
1477470220.919:    152  77  10  886
1477470220.919:    149  77  10  886
1477470220.921:    145  77  10  886
1477470220.923:    141  77  10  886
1477470220.934:    136  77  10  886
1477470220.934:    131  77  10  886
1477470220.934:    127  77  10  886
1477470220.934:    123  77  10  886
1477470220.934:    119  77  10  886
1477470220.934:    116  77  10  886
1477470220.938:    115  77  10  886
1477470220.940:    117  77  10  886
1477470220.944:    125  77  10  886
1477470220.944:    136  77  10  886
1477470220.947:    143  77  10  886
1477470220.948:    140  77  10  886
1477470220.958:    130  77  10  886
1477470220.958:    127  77  10  886
1477470220.958:    135  77  10  886
1477470220.958:    152  77  10  886
1477470220.958:    165  77  10  886
1477470220.961:    164  77  10  886
1477470220.962:    152  77  10  886
1477470220.964:    136  77  10  886
1477470220.967:    128  77  10  886
1477470220.969:    130  77  10  886
1477470220.981:    139  77  10  886
1477470220.981:    149  77  10  886
1477470220.981:    157  77  10  886
1477470220.981:    168  77  10  886
1477470220.981:    185  77  10  886
1477470220.981:    204  77  10  886
1477470220.982:    219  77  10  886
1477470220.985:    230  77  10  886
1477470220.986:    243  77  10  886
1477470220.989:    257  77  10  886
1477470220.991:    261  77  10  886
1477470220.991:    242  77  10  886
1477470220.996:    209  77  10  886
1477470220.998:    186  77  10  886
1477470220.998:    190  77  10  886
1477470220.999:    209  77  10  886
1477470221.000:    216  77  10  886
1477470221.005:    205  77  10  886
1477470221.019:    192  77  10  886
1477470221.019:    198  77  10  886
1477470221.019:    213  77  10  886
1477470221.019:    214  77  10  886
1477470221.019:    189  77  10  886
1477470221.020:    158  77  10  886
1477470221.020:    140  77  10  886
1477470221.020:    137  77  10  886
1477470221.021:    130  77  10  886
1477470221.022:    112  77  10  886
1477470221.027:     93  77  10  886
1477470221.027:     87  77  10  886
1477470221.029:     99  77  10  886
1477470221.030:    115  77  10  886
1477470221.031:    126  77  10  886
1477470221.033:    132  77  10  886
1477470221.045:    135  77  10  886
1477470221.046:    133  77  10  886
1477470221.046:    127  77  10  886
1477470221.046:    124  77  10  886
1477470221.046:    133  77  10  886
1477470221.046:    152  77  10  886
1477470221.047:    166  77  10  886
1477470221.049:    165  77  10  886
1477470221.052:    154  77  10  886
1477470221.054:    148  77  10  886
1477470221.055:    153  77  10  886
1477470221.059:    165  77  10  886
1477470221.060:    172  77  10  886
1477470221.061:    172  77  10  886
1477470221.064:    169  77  10  886
1477470221.065:    166  77  10  886
1477470221.067:    160  77  10  886
1477470221.069:    156  77  10  886
1477470221.074:    156  77  10  886
1477470221.074:    162  77  10  886
1477470221.075:    170  77  10  886
1477470221.077:    177  77  10  886
1477470221.095:    183  77  10  886
1477470221.096:    190  77  10  886
1477470221.096:    193  77  10  886
1477470221.096:    188  77  10  886
1477470221.096:    181  77  10  886
1477470221.096:    188  77  10  886
1477470221.097:    213  77  10  886
1477470221.097:    242  77  10  886
1477470221.097:    253  77  10  886
1477470221.097:    242  77  10  886
1477470221.101:    227  77  10  886
1477470221.101:    231  77  10  886
1477470221.102:    265  77  10  886
1477470221.104:    318  77  10  886
1477470221.106:    371  77  10  886
1477470221.109:    411  77  10  886
1477470221.110:    439  77  10  886
1477470221.114:    465  77  10  886
1477470221.129:    502  77  10  886
1477470221.129:    547  77  10  886
1477470221.129:    589  77  10  886
1477470221.129:    617  77  10  886
1477470221.129:    633  77  10  886
1477470221.129:    646  77  10  886
1477470221.130:    656  77  10  886
1477470221.130:    647  77  10  886
1477470221.130:    614  77  10  886
1477470221.131:    569  77  10  886
1477470221.133:    536  77  10  886
1477470221.136:    522  77  10  886
1477470221.139:    511  77  10  886
1477470221.141:    483  77  10  886
1477470221.152:    436  77  10  886
1477470221.152:    382  77  10  886
1477470221.153:    333  77  10  886
1477470221.153:    294  77  10  886
1477470221.153:    261  77  10  886
1477470221.154:    229  77  10  886
1477470221.155:    192  77  10  886
1477470221.156:    144  77  10  886
1477470221.159:     82  77  10  886
1477470221.160:     14  77  10  886
1477470221.161:    -44  77  10  886
1477470221.164:    -73  77  10  886
1477470221.165:    -69  77  10  886
1477470221.171:    -47  77  10  886
1477470221.171:    -34  77  10  886
1477470221.171:    -47  77  10  886
1477470221.174:    -74  77  10  886
1477470221.175:    -87  77  10  886
1477470221.177:    -71  77  10  886
1477470221.179:    -40  77  10  886
1477470221.183:    -21  77  10  886
1477470221.183:    -29  77  10  886
1477470221.199:    -53  77  10  886
1477470221.199:    -77  77  10  886
1477470221.199:    -96  77  10  886
1477470221.200:   -109  77  10  886
1477470221.200:   -110  77  10  886
1477470221.200:    -93  77  10  886
1477470221.200:    -67  77  10  886
1477470221.200:    -54  77  10  886
1477470221.200:    -61  77  10  886
1477470221.204:    -72  77  10  886
1477470221.205:    -62  77  10  886
1477470221.207:    -29  77  10  886
1477470221.208:      1  77  10  886
1477470221.211:      9  77  10  886
1477470221.212:      5  77  10  886
1477470221.214:      6  77  10  886
1477470221.216:     16  77  10  886
1477470221.220:     23  77  10  886
1477470221.231:     29  77  10  886
1477470221.249:     51  77  10  886
1477470221.257:     99  77  10  886
1477470221.258:    156  77  10  886
1477470221.258:    204  77  10  886
1477470221.258:    251  77  10  886
1477470221.258:    330  77  10  886
1477470221.258:    452  77  10  886
1477470221.258:    594  77  10  886
1477470221.258:    725  77  10  886
1477470221.258:    850  77  10  886
1477470221.259:   1008  77  10  886
1477470221.259:   1229  77  10  886
1477470221.261:   1505  77  10  886
1477470221.261:   1806  77  10  886
1477470221.261:   2116  77  10  886
1477470221.261:   2450  77  10  886
1477470221.263:   2837  77  10  886
1477470221.263:   3295  77  10  886
1477470221.263:   3790  77  10  886
1477470221.263:   4226  77  10  886
1477470221.265:   4477  77  10  886
1477470221.265:   4456  77  10  886
1477470221.266:   4160  77  10  886
1477470221.270:   3634  77  10  886
1477470221.271:   2883  77  10  886
1477470221.282:   1865  77  10  886
1477470221.283:    594  77  10  886
1477470221.283:   -756  77  10  886
1477470221.283:  -1922  77  10  886
1477470221.283:  -2747  77  10  886
1477470221.283:  -3288  77  10  886
1477470221.284:  -3697  77  10  886
1477470221.285:  -4004  77  10  886
1477470221.286:  -4072  77  10  886
1477470221.289:  -3776  77  10  886
1477470221.291:  -3197  77  10  886
1477470221.292:  -2590  77  10  886
1477470221.297:  -2162  77  10  886
1477470221.297:  -1916  77  10  886
1477470221.298:  -1713  77  10  886
1477470221.300:  -1456  77  10  886
1477470221.305:  -1178  77  10  886
1477470221.306:   -962  77  10  886
1477470221.330:   -830  77  10  886
1477470221.330:   -730  77  10  886
1477470221.331:   -598  77  10  886
1477470221.331:   -426  77  10  886
1477470221.331:   -251  77  10  886
1477470221.331:    -98  77  10  886
1477470221.332:     31  77  10  886
1477470221.332:    140  77  10  886
1477470221.332:    221  77  10  886
1477470221.333:    254  77  10  886
1477470221.333:    237  77  10  886
1477470221.333:    199  77  10  886
1477470221.333:    183  77  10  886
1477470221.334:    221  77  10  886
1477470221.337:    311  77  10  886
1477470221.338:    417  77  10  886
1477470221.338:    490  77  10  886
1477470221.340:    504  77  10  886
1477470221.344:    471  77  10  886
1477470221.344:    432  77  10  886
1477470221.355:    425  77  10  886
1477470221.355:    458  77  10  886
1477470221.356:    506  77  10  886
1477470221.356:    542  77  10  886
1477470221.356:    561  77  10  886
1477470221.357:    570  77  10  886
1477470221.359:    576  77  10  886
1477470221.362:    570  77  10  886
1477470221.362:    544  77  10  886
1477470221.365:    500  77  10  886
1477470221.366:    455  77  10  886
1477470221.367:    426  77  10  886
1477470221.371:    416  77  10  886
1477470221.374:    416  77  10  886
1477470221.383:    418  77  10  886
1477470221.383:    418  77  10  886
1477470221.383:    418  77  10  886
1477470221.383:    422  77  10  886
1477470221.385:    431  77  10  886
1477470221.385:    444  77  10  886
1477470221.391:    457  77  10  886
1477470221.391:    473  77  10  886
1477470221.391:    499  77  10  886
1477470221.392:    535  77  10  886
1477470221.395:    574  77  10  886
1477470221.398:    607  77  10  886
1477470221.399:    634  77  10  886
1477470221.402:    663  77  10  886
1477470221.402:    698  77  10  886
1477470221.406:    738  77  10  886
1477470221.407:    777  77  10  886
1477470221.407:    817  77  10  886
1477470221.410:    862  77  10  886
1477470221.414:    912  77  10  886
1477470221.437:    957  77  10  886
1477470221.437:    991  77  10  886
1477470221.437:   1022  77  10  886
1477470221.438:   1059  77  10  886
1477470221.439:   1107  77  10  886
1477470221.440:   1152  77  10  886
1477470221.440:   1179  77  10  886
1477470221.440:   1187  77  10  886
1477470221.441:   1195  77  10  886
1477470221.441:   1221  77  10  886
1477470221.442:   1262  77  10  886
1477470221.442:   1299  77  10  886
1477470221.442:   1313  77  10  886
1477470221.443:   1313  77  10  886
1477470221.446:   1322  77  10  886
1477470221.446:   1358  77  10  886
1477470221.447:   1404  77  10  886
1477470221.448:   1433  77  10  886
1477470221.459:   1433  77  10  886
1477470221.460:   1422  77  10  886
1477470221.460:   1424  77  10  886
1477470221.461:   1444  77  10  886
1477470221.462:   1461  77  10  886
1477470221.462:   1461  77  10  886
1477470221.463:   1451  77  10  886
1477470221.464:   1450  77  10  886
1477470221.464:   1462  77  10  886
1477470221.466:   1477  77  10  886
1477470221.470:   1481  77  10  886
1477470221.471:   1475  77  10  886
1477470221.472:   1464  77  10  886
1477470221.474:   1448  77  10  886
1477470221.475:   1422  77  10  886
1477470221.480:   1387  77  10  886
1477470221.481:   1350  77  10  886
1477470221.484:   1318  77  10  886
1477470221.498:   1284  77  10  886
1477470221.498:   1241  77  10  886
1477470221.499:   1193  77  10  886
1477470221.499:   1152  77  10  886
1477470221.499:   1125  77  10  886
1477470221.499:   1103  77  10  886
1477470221.500:   1075  77  10  886
1477470221.500:   1033  77  10  886
1477470221.500:    978  77  10  886
1477470221.501:    913  77  10  886
1477470221.502:    844  77  10  886
1477470221.505:    779  77  10  886
1477470221.507:    723  77  10  886
1477470221.512:    670  77  10  886
1477470221.521:    608  77  10  886
1477470221.522:    534  77  10  886
1477470221.522:    467  77  10  886
1477470221.522:    420  77  10  886
1477470221.522:    391  77  10  886
1477470221.523:    361  77  10  886
1477470221.526:    323  66   8  904
1477470221.526:    284  66   8  904
1477470221.528:    251  66   8  904
1477470221.529:    216  66   8  904
1477470221.531:    173  66   8  904
1477470221.533:    130  66   8  904
1477470221.535:    108  66   8  904
1477470221.542:    108  66   8  904
1477470221.559:    106  66   8  904
1477470221.559:     74  66   8  904
1477470221.560:     23  66   8  904
1477470221.561:    -13  66   8  904
1477470221.561:     -7  66   8  904
1477470221.561:     27  66   8  904
1477470221.562:     48  66   8  904
1477470221.562:     35  66   8  904
1477470221.562:      4  66   8  904
1477470221.563:     -6  66   8  904
1477470221.563:     20  66   8  904
1477470221.566:     63  66   8  904
1477470221.566:     85  66   8  904
1477470221.568:     73  66   8  904
1477470221.579:     50  66   8  904
1477470221.579:     43  66   8  904
1477470221.579:     60  66   8  904
1477470221.580:     81  66   8  904
1477470221.580:     84  66   8  904
1477470221.580:     70  66   8  904
1477470221.582:     55  66   8  904
1477470221.585:     48  66   8  904
1477470221.585:     49  66   8  904
1477470221.587:     52  66   8  904
1477470221.588:     54  66   8  904
1477470221.589:     55  66   8  904
1477470221.590:     49  66   8  904
1477470221.591:     31  66   8  904
1477470221.595:      5  66   8  904
1477470221.595:    -16  66   8  904
1477470221.600:    -23  66   8  904
1477470221.600:    -24  66   8  904
1477470221.601:    -32  66   8  904
1477470221.604:    -51  66   8  904
1477470221.611:    -70  66   8  904
1477470221.611:    -76  66   8  904
1477470221.611:    -61  66   8  904
1477470221.611:    -31  66   8  904
1477470221.613:      1  66   8  904
1477470221.615:     25  66   8  904
1477470221.617:     38  66   8  904
1477470221.623:     49  66   8  904
1477470221.624:     68  66   8  904
1477470221.624:     95  66   8  904
1477470221.626:    122  66   8  904
1477470221.626:    145  66   8  904
1477470221.629:    161  66   8  904
1477470221.631:    174  66   8  904
1477470221.647:    181  66   8  904
1477470221.648:    187  66   8  904
1477470221.648:    201  66   8  904
1477470221.648:    227  66   8  904
1477470221.648:    255  66   8  904
1477470221.649:    270  66   8  904
1477470221.649:    268  66   8  904
1477470221.649:    266  66   8  904
1477470221.650:    278  66   8  904
1477470221.650:    299  66   8  904
1477470221.655:    306  66   8  904
1477470221.655:    290  66   8  904
1477470221.656:    268  66   8  904
1477470221.658:    266  66   8  904
1477470221.661:    288  66   8  904
1477470221.662:    312  66   8  904
1477470221.672:    316  66   8  904
1477470221.672:    303  66   8  904
1477470221.672:    297  66   8  904
1477470221.673:    311  66   8  904
1477470221.673:    335  66   8  904
1477470221.674:    349  66   8  904
1477470221.677:    344  66   8  904
1477470221.677:    333  66   8  904
1477470221.682:    330  66   8  904
1477470221.682:    338  66   8  904
1477470221.684:    347  66   8  904
1477470221.685:    350  66   8  904
1477470221.695:    347  66   8  904
1477470221.696:    346  66   8  904
1477470221.696:    353  66   8  904
1477470221.696:    364  66   8  904
1477470221.696:    371  66   8  904
1477470221.697:    369  66   8  904
1477470221.699:    359  66   8  904
1477470221.704:    352  66   8  904
1477470221.705:    356  66   8  904
1477470221.706:    364  66   8  904
1477470221.716:    366  66   8  904
1477470221.716:    355  66   8  904
1477470221.716:    340  66   8  904
1477470221.716:    331  66   8  904
1477470221.716:    330  66   8  904
1477470221.718:    325  66   8  904
1477470221.719:    312  66   8  904
1477470221.723:    297  66   8  904
1477470221.724:    290  66   8  904
1477470221.725:    288  66   8  904
1477470221.727:    279  66   8  904
1477470221.729:    265  66   8  904
1477470221.731:    258  66   8  904
1477470221.733:    269  66   8  904
1477470221.737:    293  66   8  904
1477470221.737:    315  66   8  904
1477470221.739:    326  66   8  904
1477470221.740:    333  66   8  904
1477470221.743:    343  66   8  904
1477470221.745:    353  66   8  904
1477470221.758:    356  66   8  904
1477470221.759:    356  66   8  904
1477470221.760:    361  66   8  904
1477470221.761:    370  66   8  904
1477470221.761:    374  66   8  904
1477470221.762:    374  66   8  904
1477470221.763:    382  66   8  904
1477470221.764:    408  66   8  904
1477470221.765:    445  66   8  904
1477470221.765:    474  66   8  904
1477470221.774:    485  66   8  904
1477470221.806:    489  66   8  904
1477470221.812:    500  66   8  904
1477470221.812:    520  66   8  904
1477470221.812:    535  66   8  904
1477470221.812:    541  66   8  904
1477470221.812:    542  66   8  904
1477470221.812:    547  66   8  904
1477470221.813:    560  66   8  904
1477470221.813:    575  66   8  904
1477470221.813:    586  66   8  904
1477470221.813:    597  66   8  904
1477470221.813:    614  66   8  904
1477470221.813:    639  66   8  904
1477470221.814:    671  66   8  904
1477470221.814:    706  66   8  904
1477470221.814:    739  66   8  904
1477470221.814:    768  66   8  904
1477470221.814:    794  66   8  904
1477470221.814:    816  66   8  904
1477470221.814:    835  66   8  904
1477470221.815:    851  66   8  904
1477470221.815:    866  66   8  904
1477470221.816:    868  66   8  904
1477470221.816:    843  66   8  904
1477470221.818:    792  66   8  904
1477470221.819:    739  66   8  904
1477470221.822:    710  66   8  904
1477470221.823:    708  66   8  904
1477470221.825:    707  66   8  904
1477470221.901:    680  66   8  904
1477470221.901:    625  66   8  904
1477470221.902:    567  66   8  904
1477470221.902:    529  66   8  904
1477470221.902:    512  66   8  904
1477470221.902:    496  66   8  904
1477470221.902:    460  66   8  904
1477470221.902:    399  66   8  904
1477470221.903:    319  66   8  904
1477470221.903:    238  66   8  904
1477470221.903:    176  66   8  904
1477470221.903:    145  66   8  904
1477470221.904:    135  66   8  904
1477470221.905:    129  66   8  904
1477470221.905:    112  66   8  904
1477470221.905:     86  66   8  904
1477470221.905:     69  66   8  904
1477470221.905:     70  66   8  904
1477470221.906:     81  66   8  904
1477470221.906:     90  66   8  904
1477470221.906:     93  66   8  904
1477470221.906:     95  66   8  904
1477470221.906:    102  66   8  904
1477470221.907:    111  66   8  904
1477470221.907:    115  66   8  904
1477470221.907:    110  66   8  904
1477470221.907:    109  66   8  904
1477470221.907:    122  66   8  904
1477470221.908:    145  66   8  904
1477470221.908:    162  66   8  904
1477470221.908:    160  66   8  904
1477470221.908:    147  66   8  904
1477470221.908:    141  66   8  904
1477470221.908:    153  66   8  904
1477470221.908:    172  66   8  904
1477470221.908:    181  66   8  904
1477470221.909:    177  66   8  904
1477470221.909:    177  66   8  904
1477470221.909:    190  66   8  904
1477470221.909:    212  66   8  904
1477470221.909:    229  66   8  904
1477470221.909:    244  66   8  904
1477470221.909:    268  66   8  904
1477470221.912:    306  66   8  904
1477470221.913:    353  66   8  904
1477470221.914:    404  66   8  904
1477470221.915:    471  66   8  904
1477470221.919:    561  66   8  904
1477470221.939:    669  66   8  904
1477470221.939:    776  66   8  904
1477470221.939:    881  66   8  904
1477470221.940:   1007  66   8  904
1477470221.941:   1184  66   8  904
1477470221.941:   1416  66   8  904
1477470221.941:   1686  66   8  904
1477470221.941:   1969  66   8  904
1477470221.941:   2262  66   8  904
1477470221.941:   2584  66   8  904
1477470221.942:   2972  66   8  904
1477470221.946:   3437  66   8  904
1477470221.947:   3927  66   8  904
1477470221.947:   4323  66   8  904
1477470221.947:   4499  66   8  904
1477470221.950:   4409  66   8  904
1477470221.951:   4086  66   8  904
1477470221.954:   3558  66   8  904
1477470221.963:   2780  66   8  904
1477470221.963:   1693  66   8  904
1477470221.963:    368  66   8  904
1477470221.963:   -956  66   8  904
1477470221.963:  -2025  66   8  904
1477470221.965:  -2772  66   8  904
1477470221.970:  -3318  66   8  904
1477470221.971:  -3776  66   8  904
1477470221.971:  -4081  66   8  904
1477470221.972:  -4055  66   8  904
1477470221.974:  -3635  66   8  904
1477470221.979:  -2994  66   8  904
1477470221.979:  -2408  66   8  904
1477470221.983:  -2023  66   8  904
1477470221.983:  -1781  66   8  904
1477470221.985:  -1544  66   8  904
1477470221.986:  -1261  66   8  904
1477470221.988:   -993  66   8  904
1477470221.990:   -815  66   8  904
1477470221.992:   -726  66   8  904
1477470221.998:   -657  66   8  904
1477470221.998:   -551  66   8  904
1477470222.017:   -408  66   8  904
1477470222.017:   -258  66   8  904
1477470222.018:   -120  66   8  904
1477470222.018:      1  66   8  904
1477470222.018:     99  66   8  904
1477470222.019:    161  66   8  904
1477470222.019:    175  66   8  904
1477470222.019:    157  66   8  904
1477470222.020:    142  66   8  904
1477470222.021:    164  66   8  904
1477470222.021:    235  66   8  904
1477470222.021:    332  66   8  904
1477470222.024:    418  66   8  904
1477470222.024:    467  66   8  904
1477470222.029:    475  66   8  904
1477470222.032:    460  66   8  904
1477470222.040:    442  66   8  904
1477470222.040:    436  66   8  904
1477470222.040:    445  66   8  904
1477470222.040:    464  66   8  904
1477470222.041:    488  66   8  904
1477470222.041:    511  66   8  904
1477470222.041:    526  66   8  904
1477470222.044:    528  66   8  904
1477470222.045:    517  66   8  904
1477470222.048:    493  66   8  904
1477470222.052:    463  66   8  904
1477470222.052:    441  66   8  904
1477470222.053:    436  66   8  904
1477470222.055:    447  66   8  904
1477470222.056:    459  66   8  904
1477470222.059:    460  66   8  904
1477470222.062:    446  66   8  904
1477470222.066:    432  66   8  904
1477470222.078:    431  66   8  904
1477470222.078:    443  66   8  904
1477470222.078:    452  66   8  904
1477470222.078:    444  66   8  904
1477470222.078:    426  66   8  904
1477470222.079:    419  66   8  904
1477470222.079:    440  66   8  904
1477470222.080:    482  66   8  904
1477470222.083:    520  66   8  904
1477470222.084:    539  66   8  904
1477470222.085:    549  66   8  904
1477470222.087:    575  66   8  904
1477470222.100:    628  66   8  904
1477470222.101:    693  66   8  904
1477470222.101:    748  66   8  904
1477470222.101:    786  66   8  904
1477470222.101:    821  66   8  904
1477470222.101:    867  66   8  904
1477470222.101:    919  66   8  904
1477470222.103:    964  66   8  904
1477470222.107:    996  66   8  904
1477470222.107:   1028  66   8  904
1477470222.109:   1072  66   8  904
1477470222.115:   1125  66   8  904
1477470222.116:   1173  66   8  904
1477470222.117:   1205  66   8  904
1477470222.118:   1223  66   8  904
1477470222.121:   1242  66   8  904
1477470222.130:   1272  66   8  904
1477470222.132:   1313  66   8  904
1477470222.132:   1351  66   8  904
1477470222.133:   1372  66   8  904
1477470222.134:   1380  66   8  904
1477470222.135:   1390  66   8  904
1477470222.136:   1415  66   8  904
1477470222.138:   1452  66   8  904
1477470222.151:   1487  66   8  904
1477470222.151:   1513  66   8  904
1477470222.152:   1539  66   8  904
1477470222.153:   1577  66   8  904
1477470222.154:   1618  66   8  904
1477470222.154:   1646  66   8  904
1477470222.155:   1652  66   8  904
1477470222.155:   1648  66   8  904
1477470222.171:   1649  66   8  904
1477470222.173:   1654  66   8  904
1477470222.174:   1646  66   8  904
1477470222.179:   1614  66   8  904
1477470222.180:   1570  66   8  904
1477470222.180:   1533  66   8  904
1477470222.180:   1506  66   8  904
1477470222.180:   1480  66   8  904
1477470222.180:   1446  66   8  904
1477470222.180:   1408  66   8  904
1477470222.180:   1378  66   8  904
1477470222.181:   1356  66   8  904
1477470222.181:   1326  66   8  904
1477470222.183:   1283  66   8  904
1477470222.201:   1237  66   8  904
1477470222.201:   1200  66   8  904
1477470222.202:   1173  66   8  904
1477470222.202:   1139  66   8  904
1477470222.202:   1090  66   8  904
1477470222.203:   1036  66   8  904
1477470222.203:    991  66   8  904
1477470222.203:    955  66   8  904
1477470222.203:    911  66   8  904
1477470222.204:    854  66   8  904
1477470222.204:    796  66   8  904
1477470222.204:    751  66   8  904
1477470222.204:    715  66   8  904
1477470222.205:    662  66   8  904
1477470222.206:    579  66   8  904
1477470222.208:    486  66   8  904
1477470222.210:    419  65   8  857
1477470222.213:    386  65   8  857
1477470222.221:    361  65   8  857
1477470222.221:    313  65   8  857
1477470222.222:    245  65   8  857
1477470222.223:    190  65   8  857
1477470222.223:    176  65   8  857
1477470222.224:    192  65   8  857
1477470222.227:    198  65   8  857
1477470222.230:    168  65   8  857
1477470222.230:    118  65   8  857
1477470222.232:     86  65   8  857
1477470222.236:     84  65   8  857
1477470222.236:     91  65   8  857
1477470222.238:     78  65   8  857
1477470222.241:     42  65   8  857
1477470222.247:      8  65   8  857
1477470222.247:      0  65   8  857
1477470222.248:     14  65   8  857
1477470222.255:     31  65   8  857
1477470222.256:     37  65   8  857
1477470222.256:     36  65   8  857
1477470222.256:     39  65   8  857
1477470222.258:     52  65   8  857
1477470222.259:     71  65   8  857
1477470222.260:     84  65   8  857
1477470222.262:     80  65   8  857
1477470222.266:     62  65   8  857
1477470222.277:     40  65   8  857
1477470222.277:     33  65   8  857
1477470222.277:     41  65   8  857
1477470222.277:     48  65   8  857
1477470222.278:     34  65   8  857
1477470222.278:     -1  65   8  857
1477470222.279:    -31  65   8  857
1477470222.279:    -32  65   8  857
1477470222.280:    -10  65   8  857
1477470222.282:      7  65   8  857
1477470222.285:     -2  65   8  857
1477470222.286:    -29  65   8  857
1477470222.290:    -49  65   8  857
1477470222.291:    -47  65   8  857
1477470222.300:    -29  65   8  857
1477470222.301:    -13  65   8  857
1477470222.301:     -8  65   8  857
1477470222.301:     -9  65   8  857
1477470222.301:    -11  65   8  857
1477470222.304:    -11  65   8  857
1477470222.305:     -7  65   8  857
1477470222.306:      5  65   8  857
1477470222.307:     29  65   8  857
1477470222.311:     61  65   8  857
1477470222.312:     89  65   8  857
1477470222.314:    106  65   8  857
1477470222.318:    114  65   8  857
1477470222.318:    121  65   8  857
1477470222.320:    137  65   8  857
1477470222.321:    159  65   8  857
1477470222.327:    181  65   8  857
1477470222.327:    192  65   8  857
1477470222.329:    189  65   8  857
1477470222.330:    183  65   8  857
1477470222.344:    185  65   8  857
1477470222.345:    198  65   8  857
1477470222.345:    213  65   8  857
1477470222.346:    218  65   8  857
1477470222.346:    211  65   8  857
1477470222.346:    203  65   8  857
1477470222.347:    205  65   8  857
1477470222.347:    215  65   8  857
1477470222.348:    223  65   8  857
1477470222.349:    224  65   8  857
1477470222.352:    225  65   8  857
1477470222.354:    233  65   8  857
1477470222.365:    248  65   8  857
1477470222.366:    262  65   8  857
1477470222.366:    269  65   8  857
1477470222.367:    277  65   8  857
1477470222.367:    294  65   8  857
1477470222.367:    316  65   8  857
1477470222.369:    333  65   8  857
1477470222.371:    339  65   8  857
1477470222.373:    340  65   8  857
1477470222.375:    345  65   8  857
1477470222.386:    354  65   8  857
1477470222.386:    359  65   8  857
1477470222.387:    356  65   8  857
1477470222.387:    351  65   8  857
1477470222.387:    351  65   8  857
1477470222.387:    358  65   8  857
1477470222.387:    367  65   8  857
1477470222.389:    374  65   8  857
1477470222.390:    383  65   8  857
1477470222.392:    394  65   8  857
1477470222.395:    404  65   8  857
1477470222.396:    404  65   8  857
1477470222.398:    392  65   8  857
1477470222.400:    377  65   8  857
1477470222.405:    367  65   8  857
1477470222.405:    363  65   8  857
1477470222.406:    358  65   8  857
1477470222.408:    343  65   8  857
1477470222.409:    321  65   8  857
1477470222.412:    300  65   8  857
1477470222.432:    285  65   8  857
1477470222.433:    281  65   8  857
1477470222.433:    285  65   8  857
1477470222.433:    290  65   8  857
1477470222.434:    284  65   8  857
1477470222.435:    263  65   8  857
1477470222.437:    236  65   8  857
1477470222.438:    221  65   8  857
1477470222.438:    228  65   8  857
1477470222.438:    245  65   8  857
1477470222.439:    246  65   8  857
1477470222.440:    221  65   8  857
1477470222.440:    187  65   8  857
1477470222.442:    172  65   8  857
1477470222.444:    188  65   8  857
1477470222.445:    217  65   8  857
1477470222.455:    236  65   8  857
1477470222.455:    237  65   8  857
1477470222.455:    233  65   8  857
1477470222.456:    233  65   8  857
1477470222.456:    240  65   8  857
1477470222.456:    245  65   8  857
1477470222.460:    249  65   8  857
1477470222.460:    257  65   8  857
1477470222.461:    272  65   8  857
1477470222.462:    285  65   8  857
1477470222.465:    285  65   8  857
1477470222.470:    275  65   8  857
1477470222.477:    275  65   8  857
1477470222.477:    306  65   8  857
1477470222.477:    366  65   8  857
1477470222.477:    431  65   8  857
1477470222.478:    477  65   8  857
1477470222.479:    503  65   8  857
1477470222.482:    529  65   8  857
1477470222.482:    576  65   8  857
1477470222.487:    638  65   8  857
1477470222.487:    693  65   8  857
1477470222.489:    719  65   8  857
1477470222.490:    718  65   8  857
1477470222.501:    706  65   8  857
1477470222.501:    691  65   8  857
1477470222.502:    671  65   8  857
1477470222.502:    640  65   8  857
1477470222.502:    607  65   8  857
1477470222.502:    581  65   8  857
1477470222.529:    563  65   8  857
1477470222.591:    540  65   8  857
1477470222.591:    502  65   8  857
1477470222.591:    454  65   8  857
1477470222.591:    412  65   8  857
1477470222.591:    388  65   8  857
1477470222.591:    374  65   8  857
1477470222.592:    355  65   8  857
1477470222.592:    321  65   8  857
1477470222.592:    273  65   8  857
1477470222.592:    219  65   8  857
1477470222.592:    170  65   8  857
1477470222.592:    135  65   8  857
1477470222.593:    114  65   8  857
1477470222.593:     93  65   8  857
1477470222.593:     59  65   8  857
1477470222.593:     18  65   8  857
1477470222.593:    -10  65   8  857
1477470222.593:     -7  65   8  857
1477470222.594:     14  65   8  857
1477470222.594:     24  65   8  857
1477470222.594:      8  65   8  857
1477470222.594:    -20  65   8  857
1477470222.594:    -31  65   8  857
1477470222.594:    -20  65   8  857
1477470222.594:     -8  65   8  857
1477470222.595:    -18  65   8  857
1477470222.595:    -44  65   8  857
1477470222.595:    -59  65   8  857
1477470222.595:    -47  65   8  857
1477470222.595:    -21  65   8  857
1477470222.595:     -1  65   8  857
1477470222.595:      8  65   8  857
1477470222.596:     17  65   8  857
1477470222.596:     31  65   8  857
1477470222.596:     40  65   8  857
1477470222.596:     40  65   8  857
1477470222.596:     41  65   8  857
1477470222.596:     59  65   8  857
1477470222.596:     89  65   8  857
1477470222.597:    106  65   8  857
1477470222.597:     93  65   8  857
1477470222.597:     72  65   8  857
1477470222.597:     82  65   8  857
1477470222.597:    130  65   8  857
1477470222.597:    182  65   8  857
1477470222.598:    198  65   8  857
1477470222.598:    187  65   8  857
1477470222.599:    202  65   8  857
1477470222.601:    283  65   8  857
1477470222.607:    415  65   8  857
1477470222.608:    547  65   8  857
1477470222.608:    650  65   8  857
1477470222.609:    751  65   8  857
1477470222.610:    900  65   8  857
1477470222.612:   1124  65   8  857
1477470222.632:   1402  65   8  857
1477470222.632:   1693  65   8  857
1477470222.632:   1967  65   8  857
1477470222.632:   2238  65   8  857
1477470222.633:   2560  65   8  857
1477470222.633:   2986  65   8  857
1477470222.633:   3506  65   8  857
1477470222.633:   4006  65   8  857
1477470222.634:   4326  65   8  857
1477470222.634:   4378  65   8  857
1477470222.637:   4187  65   8  857
1477470222.638:   3810  65   8  857
1477470222.639:   3211  65   8  857
1477470222.640:   2278  65   8  857
1477470222.654:    991  65   8  857
1477470222.654:   -449  65   8  857
1477470222.655:  -1728  65   8  857
1477470222.655:  -2662  65   8  857
1477470222.657:  -3318  65   8  857
1477470222.657:  -3849  65   8  857
1477470222.658:  -4261  65   8  857
1477470222.658:  -4382  65   8  857
1477470222.661:  -4070  65   8  857
1477470222.661:  -3420  65   8  857
1477470222.664:  -2711  65   8  857
1477470222.666:  -2169  65   8  857
1477470222.666:  -1817  65   8  857
1477470222.668:  -1540  65   8  857
1477470222.670:  -1254  65   8  857
1477470222.674:   -979  65   8  857
1477470222.689:   -780  65   8  857
1477470222.690:   -673  65   8  857
1477470222.690:   -610  65   8  857
1477470222.690:   -528  65   8  857
1477470222.690:   -400  65   8  857
1477470222.690:   -237  65   8  857
1477470222.691:    -72  65   8  857
1477470222.691:     70  65   8  857
1477470222.692:    178  65   8  857
1477470222.694:    258  65   8  857
1477470222.694:    311  65   8  857
1477470222.695:    331  65   8  857
1477470222.697:    309  65   8  857
1477470222.704:    265  65   8  857
1477470222.715:    248  65   8  857
1477470222.715:    297  65   8  857
1477470222.715:    399  65   8  857
1477470222.716:    493  65   8  857
1477470222.716:    526  65   8  857
1477470222.716:    500  65   8  857
1477470222.716:    457  65   8  857
1477470222.716:    441  65   8  857
1477470222.717:    454  65   8  857
1477470222.720:    473  65   8  857
1477470222.721:    482  65   8  857
1477470222.722:    489  65   8  857
1477470222.725:    505  65   8  857
1477470222.729:    523  65   8  857
1477470222.730:    524  65   8  857
1477470222.731:    496  65   8  857
1477470222.732:    452  65   8  857
1477470222.733:    416  65   8  857
1477470222.736:    403  65   8  857
1477470222.739:    408  65   8  857
1477470222.744:    414  65   8  857
1477470222.745:    410  65   8  857
1477470222.760:    397  65   8  857
1477470222.761:    389  65   8  857
1477470222.761:    397  65   8  857
1477470222.762:    419  65   8  857
1477470222.763:    444  65   8  857
1477470222.764:    459  65   8  857
1477470222.765:    465  65   8  857
1477470222.765:    472  65   8  857
1477470222.766:    486  65   8  857
1477470222.767:    506  65   8  857
1477470222.767:    528  65   8  857
1477470222.771:    549  65   8  857
1477470222.779:    568  65   8  857
1477470222.780:    586  65   8  857
1477470222.783:    604  65   8  857
1477470222.784:    628  65   8  857
1477470222.784:    666  65   8  857
1477470222.784:    716  65   8  857
1477470222.784:    769  65   8  857
1477470222.784:    822  65   8  857
1477470222.785:    877  65   8  857
1477470222.786:    937  65   8  857
1477470222.787:    997  65   8  857
1477470222.789:   1040  65   8  857
1477470222.791:   1064  65   8  857
1477470222.795:   1083  65   8  857
1477470222.795:   1113  65   8  857
1477470222.797:   1156  65   8  857
1477470222.799:   1196  65   8  857
1477470222.803:   1226  65   8  857
1477470222.803:   1255  65   8  857
1477470222.805:   1297  65   8  857
1477470222.817:   1349  65   8  857
1477470222.818:   1394  65   8  857
1477470222.820:   1422  65   8  857
1477470222.821:   1444  65   8  857
1477470222.821:   1472  65   8  857
1477470222.822:   1507  65   8  857
1477470222.823:   1534  65   8  857
1477470222.823:   1550  65   8  857
1477470222.824:   1568  65   8  857
1477470222.825:   1602  65   8  857
1477470222.826:   1649  65   8  857
1477470222.831:   1687  65   8  857
1477470222.841:   1709  65   8  857
1477470222.841:   1723  65   8  857
1477470222.841:   1741  65   8  857
1477470222.842:   1761  65   8  857
1477470222.842:   1767  65   8  857
1477470222.842:   1750  65   8  857
1477470222.846:   1720  65   8  857
1477470222.846:   1687  65   8  857
1477470222.847:   1650  65   8  857
1477470222.848:   1604  65   8  857
1477470222.850:   1551  65   8  857
1477470222.852:   1505  65   8  857
1477470222.865:   1470  65   8  857
1477470222.865:   1438  65   8  857
1477470222.865:   1398  65   8  857
1477470222.866:   1350  65   8  857
1477470222.866:   1304  65   8  857
1477470222.866:   1261  65   8  857
1477470222.866:   1215  65   8  857
1477470222.868:   1165  65   8  857
1477470222.872:   1119  65   8  857
1477470222.873:   1086  65   8  857
1477470222.875:   1060  65   8  857
1477470222.876:   1022  65   8  857
1477470222.880:    964  65   8  857
1477470222.880:    897  65   8  857
1477470222.885:    839  65   8  857
1477470222.886:    793  65   8  857
1477470222.886:    742  65   8  857
1477470222.887:    673  65   8  857
1477470222.891:    590  65   8  857
1477470222.892:    514  65   8  857
1477470222.893:    462  65   8  859
1477470222.899:    430  65   8  859
1477470222.911:    394  65   8  859
1477470222.911:    343  65   8  859
1477470222.912:    290  65   8  859
1477470222.912:    253  65   8  859
1477470222.913:    237  65   8  859
1477470222.913:    222  65   8  859
1477470222.913:    188  65   8  859
1477470222.914:    141  65   8  859
1477470222.914:     99  65   8  859
1477470222.916:     77  65   8  859
1477470222.918:     65  65   8  859
1477470222.920:     47  65   8  859
1477470222.947:     20  65   8  859
1477470222.947:     -2  65   8  859
1477470222.947:     -8  65   8  859
1477470222.947:     -1  65   8  859
1477470222.947:      4  65   8  859
1477470222.948:      3  65   8  859
1477470222.948:      2  65   8  859
1477470222.948:     11  65   8  859
1477470222.949:     29  65   8  859
1477470222.949:     43  65   8  859
1477470222.949:     43  65   8  859
1477470222.949:     34  65   8  859
1477470222.949:     31  65   8  859
1477470222.949:     43  65   8  859
1477470222.950:     57  65   8  859
1477470222.954:     51  65   8  859
1477470222.954:     17  65   8  859
1477470222.955:    -25  65   8  859
1477470222.956:    -49  65   8  859
1477470222.958:    -48  65   8  859
1477470222.969:    -42  65   8  859
1477470222.969:    -48  65   8  859
1477470222.969:    -62  65   8  859
1477470222.969:    -63  65   8  859
1477470222.970:    -47  65   8  859
1477470222.970:    -30  65   8  859
1477470222.972:    -26  65   8  859
1477470222.973:    -33  65   8  859
1477470222.975:    -36  65   8  859
1477470222.978:    -36  65   8  859
1477470222.981:    -41  65   8  859
1477470222.982:    -53  65   8  859
1477470222.985:    -58  65   8  859
1477470222.985:    -47  65   8  859
1477470223.008:    -30  65   8  859
1477470223.009:    -26  65   8  859
1477470223.009:    -33  65   8  859
1477470223.009:    -33  65   8  859
1477470223.009:    -12  65   8  859
1477470223.009:     19  65   8  859
1477470223.009:     39  65   8  859
1477470223.010:     37  65   8  859
1477470223.010:     23  65   8  859
1477470223.010:     10  65   8  859
1477470223.010:      6  65   8  859
1477470223.010:     13  65   8  859
1477470223.012:     28  65   8  859
1477470223.014:     43  65   8  859
1477470223.015:     45  65   8  859
1477470223.017:     33  65   8  859
1477470223.021:     26  65   8  859
1477470223.023:     46  65   8  859
1477470223.023:     95  65   8  859
1477470223.029:    141  65   8  859
1477470223.029:    155  65   8  859
1477470223.031:    140  65   8  859
1477470223.033:    134  65   8  859
1477470223.035:    163  65   8  859
1477470223.036:    211  65   8  859
1477470223.037:    238  65   8  859
1477470223.038:    227  65   8  859
1477470223.040:    199  65   8  859
1477470223.055:    193  65   8  859
1477470223.055:    217  65   8  859
1477470223.055:    242  65   8  859
1477470223.055:    241  65   8  859
1477470223.056:    216  65   8  859
1477470223.056:    198  65   8  859
1477470223.056:    207  65   8  859
1477470223.057:    237  65   8  859
1477470223.059:    264  65   8  859
1477470223.060:    271  65   8  859
1477470223.062:    266  65   8  859
1477470223.064:    267  65   8  859
1477470223.069:    284  65   8  859
1477470223.069:    309  65   8  859
1477470223.079:    321  65   8  859
1477470223.080:    315  65   8  859
1477470223.080:    300  65   8  859
1477470223.080:    295  65   8  859
1477470223.080:    306  65   8  859
1477470223.080:    316  65   8  859
1477470223.082:    306  65   8  859
1477470223.085:    280  65   8  859
1477470223.086:    262  65   8  859
1477470223.092:    271  65   8  859
1477470223.100:    299  65   8  859
1477470223.100:    322  65   8  859
1477470223.101:    320  65   8  859
1477470223.101:    301  65   8  859
1477470223.101:    283  65   8  859
1477470223.101:    275  65   8  859
1477470223.105:    272  65   8  859
1477470223.105:    264  65   8  859
1477470223.106:    245  65   8  859
1477470223.107:    217  65   8  859
1477470223.108:    188  65   8  859
1477470223.113:    162  65   8  859
1477470223.114:    144  65   8  859
1477470223.118:    138  65   8  859
1477470223.130:    138  65   8  859
1477470223.130:    133  65   8  859
1477470223.130:    118  65   8  859
1477470223.130:     98  65   8  859
1477470223.131:     89  65   8  859
1477470223.131:     98  65   8  859
1477470223.132:    122  65   8  859
1477470223.132:    141  65   8  859
1477470223.134:    149  65   8  859
1477470223.137:    153  65   8  859
1477470223.149:    168  65   8  859
1477470223.149:    197  65   8  859
1477470223.149:    230  65   8  859
1477470223.149:    259  65   8  859
1477470223.150:    281  65   8  859
1477470223.150:    298  65   8  859
1477470223.150:    305  65   8  859
1477470223.150:    299  65   8  859
1477470223.153:    296  65   8  859
1477470223.155:    316  65   8  859
1477470223.162:    367  65   8  859
1477470223.162:    425  65   8  859
1477470223.168:    465  65   8  859
1477470223.168:    486  65   8  859
1477470223.168:    512  65   8  859
1477470223.169:    566  65   8  859
1477470223.169:    635  65   8  859
1477470223.175:    691  65   8  859
1477470223.176:    709  65   8  859
1477470223.179:    697  65   8  859
1477470223.179:    681  65   8  859
1477470223.180:    682  65   8  859
1477470223.181:    695  65   8  859
1477470223.182:    700  65   8  859
1477470223.187:    679  65   8  859
1477470223.187:    637  65   8  859
1477470223.196:    598  65   8  859
1477470223.242:    578  65   8  859
1477470223.255:    568  65   8  859
1477470223.255:    538  65   8  859
1477470223.255:    470  65   8  859
1477470223.255:    383  65   8  859
1477470223.256:    315  65   8  859
1477470223.256:    285  65   8  859
1477470223.256:    266  65   8  859
1477470223.256:    222  65   8  859
1477470223.257:    139  65   8  859
1477470223.257:     48  65   8  859
1477470223.257:    -15  65   8  859
1477470223.257:    -41  65   8  859
1477470223.257:    -59  65   8  859
1477470223.257:    -98  65   8  859
1477470223.257:   -160  65   8  859
1477470223.258:   -220  65   8  859
1477470223.258:   -255  65   8  859
1477470223.258:   -267  65   8  859
1477470223.258:   -275  65   8  859
1477470223.258:   -287  65   8  859
1477470223.259:   -295  65   8  859
1477470223.259:   -293  65   8  859
1477470223.260:   -287  65   8  859
1477470223.260:   -291  65   8  859
1477470223.260:   -305  65   8  859
1477470223.260:   -313  65   8  859
1477470223.260:   -302  65   8  859
1477470223.260:   -280  65   8  859
1477470223.261:   -267  65   8  859
1477470223.261:   -270  65   8  859
1477470223.261:   -277  65   8  859
1477470223.261:   -273  65   8  859
1477470223.261:   -256  65   8  859
1477470223.261:   -236  65   8  859
1477470223.264:   -221  65   8  859
1477470223.264:   -210  65   8  859
1477470223.278:   -201  65   8  859
1477470223.278:   -189  65   8  859
1477470223.278:   -168  65   8  859
1477470223.279:   -136  65   8  859
1477470223.280:    -96  65   8  859
1477470223.283:    -60  65   8  859
1477470223.284:    -40  65   8  859
1477470223.284:    -30  65   8  859
1477470223.284:    -11  65   8  859
1477470223.284:     36  65   8  859
1477470223.284:    109  65   8  859
1477470223.284:    194  65   8  859
1477470223.287:    275  65   8  859
1477470223.288:    361  65   8  859
1477470223.300:    467  65   8  859
1477470223.300:    600  65   8  859
1477470223.300:    760  65   8  859
1477470223.301:    946  65   8  859
1477470223.301:   1169  65   8  859
1477470223.302:   1440  65   8  859
1477470223.302:   1746  65   8  859
1477470223.305:   2071  65   8  859
1477470223.306:   2426  65   8  859
1477470223.308:   2846  65   8  859
1477470223.310:   3353  65   8  859
1477470223.311:   3884  65   8  859
1477470223.321:   4303  65   8  859
1477470223.321:   4486  65   8  859
1477470223.321:   4394  65   8  859
1477470223.321:   4063  65   8  859
1477470223.322:   3503  65   8  859
1477470223.324:   2661  65   8  859
1477470223.325:   1499  65   8  859
1477470223.329:    118  65   8  859
1477470223.340:  -1237  65   8  859
1477470223.340:  -2338  65   8  859
1477470223.341:  -3125  65   8  859
1477470223.341:  -3696  65   8  859
1477470223.341:  -4135  65   8  859
1477470223.341:  -4384  65   8  859
1477470223.343:  -4310  65   8  859
1477470223.344:  -3882  65   8  859
1477470223.345:  -3259  65   8  859
1477470223.346:  -2684  65   8  859
1477470223.349:  -2295  65   8  859
1477470223.353:  -2060  65   8  859
1477470223.363:  -1862  65   8  859
1477470223.363:  -1630  65   8  859
1477470223.363:  -1391  65   8  859
1477470223.364:  -1207  65   8  859
1477470223.364:  -1098  65   8  859
1477470223.364:  -1023  65   8  859
1477470223.365:   -923  65   8  859
1477470223.367:   -775  65   8  859
1477470223.370:   -593  65   8  859
1477470223.371:   -410  65   8  859
1477470223.382:   -255  65   8  859
1477470223.382:   -144  65   8  859
1477470223.382:    -81  65   8  859
1477470223.383:    -59  65   8  859
1477470223.383:    -58  65   8  859
1477470223.383:    -48  65   8  859
1477470223.384:    -10  65   8  859
1477470223.388:     63  65   8  859
1477470223.388:    156  65   8  859
1477470223.390:    248  65   8  859
1477470223.402:    317  65   8  859
1477470223.402:    348  65   8  859
1477470223.402:    344  65   8  859
1477470223.402:    328  65   8  859
1477470223.402:    326  65   8  859
1477470223.403:    347  65   8  859
1477470223.403:    378  65   8  859
1477470223.405:    401  65   8  859
1477470223.411:    411  65   8  859
1477470223.414:    424  65   8  859
1477470223.414:    442  65   8  859
1477470223.416:    449  65   8  859
1477470223.417:    429  65   8  859
1477470223.419:    392  65   8  859
1477470223.430:    364  65   8  859
1477470223.430:    364  65   8  859
1477470223.430:    382  65   8  859
1477470223.430:    395  65   8  859
1477470223.431:    388  65   8  859
1477470223.431:    370  65   8  859
1477470223.431:    360  65   8  859
1477470223.432:    365  65   8  859
1477470223.439:    377  65   8  859
1477470223.440:    382  65   8  859
1477470223.440:    378  65   8  859
1477470223.442:    375  65   8  859
1477470223.455:    388  65   8  859
1477470223.455:    417  65   8  859
1477470223.455:    448  65   8  859
1477470223.456:    466  65   8  859
1477470223.456:    475  65   8  859
1477470223.456:    492  65   8  859
1477470223.457:    528  65   8  859
1477470223.457:    578  65   8  859
1477470223.458:    626  65   8  859
1477470223.460:    668  65   8  859
1477470223.462:    710  65   8  859
1477470223.465:    762  65   8  859
1477470223.478:    828  65   8  859
1477470223.478:    904  65   8  859
1477470223.478:    975  65   8  859
1477470223.478:   1030  65   8  859
1477470223.479:   1061  65   8  859
1477470223.479:   1080  65   8  859
1477470223.480:   1107  65   8  859
1477470223.481:   1154  65   8  859
1477470223.482:   1215  65   8  859
1477470223.485:   1269  65   8  859
1477470223.486:   1307  65   8  859
1477470223.487:   1339  65   8  859
1477470223.500:   1381  65   8  859
1477470223.500:   1433  65   8  859
1477470223.500:   1481  65   8  859
1477470223.501:   1515  65   8  859
1477470223.501:   1540  65   8  859
1477470223.501:   1566  65   8  859
1477470223.502:   1590  65   8  859
1477470223.507:   1606  65   8  859
1477470223.507:   1618  65   8  859
1477470223.509:   1637  65   8  859
1477470223.511:   1671  65   8  859
1477470223.512:   1708  65   8  859
1477470223.517:   1730  65   8  859
1477470223.517:   1734  65   8  859
1477470223.518:   1733  65   8  859
1477470223.519:   1737  65   8  859
1477470223.530:   1739  65   8  859
1477470223.531:   1729  65   8  859
1477470223.531:   1707  65   8  859
1477470223.531:   1681  65   8  859
1477470223.531:   1654  65   8  859
1477470223.534:   1616  65   8  859
1477470223.535:   1564  65   8  859
1477470223.536:   1511  65   8  859
1477470223.539:   1480  65   8  859
1477470223.540:   1474  65   8  859
1477470223.552:   1468  65   8  859
1477470223.552:   1440  65   8  859
1477470223.552:   1392  65   8  859
1477470223.552:   1349  65   8  859
1477470223.553:   1325  65   8  859
1477470223.553:   1306  65   8  859
1477470223.553:   1267  65   8  859
1477470223.558:   1206  65   8  859
1477470223.559:   1143  65   8  859
1477470223.561:   1096  65   8  859
1477470223.571:   1055  65   8  859
1477470223.571:   1000  65   8  859
1477470223.571:    927  65   8  859
1477470223.571:    858  65   8  859
1477470223.572:    812  65   8  859
1477470223.572:    782  65   8  859
1477470223.576:    742  65   8  859
1477470223.576:    678  65   8  859
1477470223.577:    610  65   8  859
1477470223.579:    566  76  10  861
1477470223.581:    544  76  10  861
1477470223.582:    518  76  10  861
1477470223.585:    469  76  10  861
1477470223.589:    407  76  10  861
1477470223.597:    360  76  10  861
1477470223.597:    338  76  10  861
1477470223.597:    328  76  10  861
1477470223.598:    313  76  10  861
1477470223.598:    290  76  10  861
1477470223.599:    269  76  10  861
1477470223.603:    262  76  10  861
1477470223.603:    271  76  10  861
1477470223.605:    290  76  10  861
1477470223.606:    308  76  10  861
1477470223.607:    315  76  10  861
1477470223.610:    312  76  10  861
1477470223.620:    309  76  10  861
1477470223.620:    316  76  10  861
1477470223.620:    330  76  10  861
1477470223.621:    341  76  10  861
1477470223.621:    345  76  10  861
1477470223.623:    352  76  10  861
1477470223.625:    370  76  10  861
1477470223.627:    394  76  10  861
1477470223.631:    409  76  10  861
1477470223.631:    413  76  10  861
1477470223.640:    420  76  10  861
1477470223.640:    437  76  10  861
1477470223.640:    450  76  10  861
1477470223.640:    439  76  10  861
1477470223.640:    404  76  10  861
1477470223.644:    367  76  10  861
1477470223.644:    344  76  10  861
1477470223.646:    332  76  10  861
1477470223.647:    317  76  10  861
1477470223.650:    300  76  10  861
1477470223.651:    293  76  10  861
1477470223.653:    300  76  10  861
1477470223.664:    309  76  10  861
1477470223.665:    309  76  10  861
1477470223.665:    301  76  10  861
1477470223.666:    296  76  10  861
1477470223.666:    298  76  10  861
1477470223.666:    298  76  10  861
1477470223.667:    293  76  10  861
1477470223.672:    282  76  10  861
1477470223.672:    271  76  10  861
1477470223.674:    261  76  10  861
1477470223.684:    249  76  10  861
1477470223.684:    242  76  10  861
1477470223.684:    243  76  10  861
1477470223.684:    247  76  10  861
1477470223.686:    248  76  10  861
1477470223.686:    245  76  10  861
1477470223.687:    248  76  10  861
1477470223.689:    261  76  10  861
1477470223.695:    278  76  10  861
1477470223.695:    290  76  10  861
1477470223.696:    301  76  10  861
1477470223.699:    324  76  10  861
1477470223.712:    362  76  10  861
1477470223.712:    398  76  10  861
1477470223.712:    412  76  10  861
1477470223.712:    409  76  10  861
1477470223.713:    410  76  10  861
1477470223.713:    431  76  10  861
1477470223.713:    461  76  10  861
1477470223.714:    478  76  10  861
1477470223.715:    470  76  10  861
1477470223.716:    454  76  10  861
1477470223.717:    446  76  10  861
1477470223.720:    448  76  10  861
1477470223.723:    452  76  10  861
1477470223.727:    457  76  10  861
1477470223.733:    466  76  10  861
1477470223.733:    481  76  10  861
1477470223.733:    488  76  10  861
1477470223.733:    475  76  10  861
1477470223.737:    449  76  10  861
1477470223.737:    436  76  10  861
1477470223.740:    447  76  10  861
1477470223.740:    465  76  10  861
1477470223.742:    461  76  10  861
1477470223.744:    433  76  10  861
1477470223.745:    406  76  10  861
1477470223.747:    407  76  10  861
1477470223.750:    429  76  10  861
1477470223.754:    443  76  10  861
1477470223.762:    433  76  10  861
1477470223.763:    412  76  10  861
1477470223.763:    402  76  10  861
1477470223.763:    401  76  10  861
1477470223.764:    388  76  10  861
1477470223.764:    355  76  10  861
1477470223.765:    315  76  10  861
1477470223.767:    289  76  10  861
1477470223.769:    275  76  10  861
1477470223.773:    256  76  10  861
1477470223.785:    222  76  10  861
1477470223.786:    186  76  10  861
1477470223.786:    163  76  10  861
1477470223.811:    152  76  10  861
1477470223.811:    140  76  10  861
1477470223.811:    121  76  10  861
1477470223.811:    102  76  10  861
1477470223.812:     91  76  10  861
1477470223.812:     83  76  10  861
1477470223.812:     73  76  10  861
1477470223.812:     65  76  10  861
1477470223.814:     67  76  10  861
1477470223.816:     80  76  10  861
1477470223.817:     90  76  10  861
1477470223.817:     90  76  10  861
1477470223.817:     83  76  10  861
1477470223.817:     78  76  10  861
1477470223.817:     78  76  10  861
1477470223.817:     80  76  10  861
1477470223.818:     78  76  10  861
1477470223.831:     72  76  10  861
1477470223.832:     61  76  10  861
1477470223.832:     48  76  10  861
1477470223.832:     40  76  10  861
1477470223.832:     44  76  10  861
1477470223.832:     53  76  10  861
1477470223.832:     51  76  10  861
1477470223.832:     34  76  10  861
1477470223.833:     23  76  10  861
1477470223.833:     44  76  10  861
1477470223.833:     92  76  10  861
1477470223.833:    133  76  10  861
1477470223.836:    145  76  10  861
1477470223.837:    149  76  10  861
1477470223.842:    184  76  10  861
1477470223.842:    261  76  10  861
1477470223.844:    347  76  10  861
