timestamp: ADC HeartRate4sAverage HeartRate30sAverage HRV8sAverage
1477478940.665:  -2220  61   8  997
1477478940.679:  -2466  61   8  997
1477478940.679:  -2539  61   8  997
1477478940.679:  -2435  61   8  997
1477478940.679:  -2148  61   8  997
1477478940.679:  -1728  61   8  997
1477478940.680:  -1293  61   8  997
1477478940.680:   -969  61   8  997
1477478940.680:   -813  61   8  997
1477478940.680:   -774  61   8  997
1477478940.680:   -756  61   8  997
1477478940.681:   -704  61   8  997
1477478940.681:   -622  61   8  997
1477478940.681:   -549  61   8  997
1477478940.681:   -512  61   8  997
1477478940.681:   -508  61   8  997
1477478940.681:   -515  61   8  997
1477478940.681:   -506  61   8  997
1477478940.682:   -459  61   8  997
1477478940.682:   -381  61   8  997
1477478940.682:   -307  61   8  997
1477478940.682:   -273  61   8  997
1477478940.682:   -286  61   8  997
1477478940.682:   -323  61   8  997
1477478940.683:   -352  61   8  997
1477478940.683:   -356  61   8  997
1477478940.683:   -332  61   8  997
1477478940.683:   -281  61   8  997
1477478940.683:   -205  61   8  997
1477478940.683:   -127  61   8  997
1477478940.684:    -77  61   8  997
1477478940.684:    -71  61   8  997
1477478940.684:    -92  61   8  997
1477478940.686:   -113  61   8  997
1477478940.687:   -122  61   8  997
1477478940.692:   -128  61   8  997
1477478940.693:   -133  61   8  997
1477478940.706:   -124  61   8  997
1477478940.707:    -90  61   8  997
1477478940.707:    -42  61   8  997
1477478940.707:     -7  61   8  997
1477478940.707:      7  61   8  997
1477478940.707:     15  61   8  997
1477478940.708:     35  61   8  997
1477478940.711:     58  61   8  997
1477478940.711:     64  61   8  997
1477478940.711:     49  61   8  997
1477478940.713:     39  61   8  997
1477478940.714:     53  61   8  997
1477478940.717:     83  61   8  997
1477478940.719:     98  61   8  997
1477478940.732:     86  61   8  997
1477478940.732:     63  61   8  997
1477478940.732:     58  61   8  997
1477478940.732:     81  61   8  997
1477478940.732:    121  61   8  997
1477478940.733:    156  61   8  997
1477478940.733:    177  61   8  997
1477478940.737:    182  61   8  997
1477478940.738:    177  61   8  997
1477478940.740:    170  61   8  997
1477478940.740:    176  61   8  997
1477478940.742:    204  61   8  997
1477478940.748:    243  61   8  997
1477478940.748:    270  61   8  997
1477478940.755:    271  61   8  997
1477478940.755:    254  61   8  997
1477478940.755:    247  61   8  997
1477478940.756:    271  61   8  997
1477478940.756:    322  61   8  997
1477478940.758:    374  61   8  997
1477478940.760:    405  61   8  997
1477478940.765:    413  61   8  997
1477478940.776:    413  61   8  997
1477478940.776:    423  61   8  997
1477478940.776:    449  61   8  997
1477478940.776:    481  61   8  997
1477478940.776:    502  61   8  997
1477478940.777:    509  61   8  997
1477478940.779:    512  61   8  997
1477478940.779:    523  61   8  997
1477478940.781:    545  61   8  997
1477478940.782:    570  61   8  997
1477478940.783:    592  61   8  997
1477478940.786:    617  61   8  997
1477478940.788:    654  61   8  997
1477478940.794:    696  61   8  997
1477478940.807:    722  61   8  997
1477478940.807:    727  61   8  997
1477478940.807:    729  61   8  997
1477478940.808:    756  61   8  997
1477478940.808:    809  61   8  997
1477478940.808:    858  61   8  997
1477478940.809:    871  61   8  997
1477478940.809:    857  61   8  997
1477478940.809:    850  61   8  997
1477478940.809:    878  61   8  997
1477478940.811:    930  61   8  997
1477478940.813:    973  61   8  997
1477478940.815:    986  61   8  997
1477478940.820:    979  61   8  997
1477478940.827:    984  61   8  997
1477478940.827:   1023  61   8  997
1477478940.827:   1088  61   8  997
1477478940.828:   1144  61   8  997
1477478940.828:   1166  61   8  997
1477478940.829:   1165  61   8  997
1477478940.831:   1181  61   8  997
1477478940.833:   1231  61   8  997
1477478940.834:   1296  61   8  997
1477478940.839:   1346  61   8  997
1477478940.848:   1377  61   8  997
1477478940.848:   1406  61   8  997
1477478940.848:   1444  61   8  997
1477478940.848:   1477  61   8  997
1477478940.848:   1494  61   8  997
1477478940.849:   1507  61   8  997
1477478940.852:   1534  61   8  997
1477478940.853:   1566  61   8  997
1477478940.854:   1581  61   8  997
1477478940.857:   1582  61   8  997
1477478940.867:   1590  61   8  997
1477478940.867:   1593  61   8  997
1477478940.867:   1543  61   8  997
1477478940.868:   1421  61   8  997
1477478940.868:   1290  61   8  997
1477478940.868:   1251  61   8  997
1477478940.871:   1326  61   8  997
1477478940.875:   1424  61   8  997
1477478940.877:   1444  61   8  997
1477478940.878:   1393  61   8  997
1477478940.888:   1381  61   8  997
1477478940.888:   1483  61   8  997
1477478940.888:   1648  61   8  997
1477478940.889:   1754  61   8  997
1477478940.889:   1740  61   8  997
1477478940.889:   1651  61   8  997
1477478940.891:   1570  61   8  997
1477478940.892:   1525  61   8  997
1477478940.893:   1483  61   8  997
1477478940.896:   1415  61   8  997
1477478940.898:   1333  61   8  997
1477478940.902:   1265  61   8  997
1477478940.910:   1222  61   8  997
1477478940.910:   1173  61   8  997
1477478940.911:   1098  61   8  997
1477478940.911:   1010  61   8  997
1477478940.911:    942  61   8  997
1477478940.912:    917  61   8  997
1477478940.916:    909  61   8  997
1477478940.916:    863  61   8  997
1477478940.918:    752  61   8  997
1477478940.919:    608  61   8  997
1477478940.921:    498  61   8  997
1477478940.957:    450  61   8  997
1477478940.967:    436  61   8  997
1477478940.967:    402  61   8  997
1477478940.967:    332  61   8  997
1477478940.967:    254  61   8  997
1477478940.967:    204  61   8  997
1477478940.968:    178  61   8  997
1477478940.969:    144  61   8  997
1477478940.969:     81  61   8  997
1477478940.969:      6  61   8  997
1477478940.969:    -52  61   8  997
1477478940.970:    -82  61   8  997
1477478940.970:    -99  61   8  997
1477478940.970:   -119  61   8  997
1477478940.972:   -142  61   8  997
1477478940.972:   -152  61   8  997
1477478940.973:   -143  61   8  997
1477478940.973:   -121  61   8  997
1477478940.973:    -99  61   8  997
1477478940.973:    -85  61   8  997
1477478940.974:    -80  61   8  997
1477478940.974:    -80  61   8  997
1477478940.974:    -79  61   8  997
1477478940.974:    -77  61   8  997
1477478940.974:    -76  61   8  997
1477478940.975:    -90  61   8  997
1477478940.977:   -119  61   8  997
1477478940.987:   -149  61   8  997
1477478940.987:   -156  61   8  997
1477478940.987:   -133  61   8  997
1477478940.988:    -92  61   8  997
1477478940.988:    -57  61   8  997
1477478940.988:    -41  61   8  997
1477478940.990:    -33  61   8  997
1477478940.990:    -16  61   8  997
1477478940.992:     18  61   8  997
1477478940.994:     54  61   8  997
1477478940.998:     70  61   8  997
1477478941.000:     57  61   8  997
1477478941.005:     30  61   8  997
1477478941.005:     13  61   8  997
1477478941.006:     12  61   8  997
1477478941.006:     16  61   8  997
1477478941.008:     13  61   8  997
1477478941.013:      5  61   8  997
1477478941.024:      6  61   8  997
1477478941.024:     20  61   8  997
1477478941.024:     39  61   8  997
1477478941.024:     53  61   8  997
1477478941.024:     63  61   8  997
1477478941.024:     80  61   8  997
1477478941.026:    107  61   8  997
1477478941.026:    130  61   8  997
1477478941.028:    132  61   8  997
1477478941.029:    111  61   8  997
1477478941.031:     83  61   8  997
1477478941.033:     69  61   8  997
1477478941.036:     77  61   8  997
1477478941.040:     97  61   8  997
1477478941.062:    113  61   8  997
1477478941.062:    122  61   8  997
1477478941.062:    135  61   8  997
1477478941.062:    157  61   8  997
1477478941.063:    182  61   8  997
1477478941.063:    198  61   8  997
1477478941.063:    199  61   8  997
1477478941.063:    191  61   8  997
1477478941.064:    179  61   8  997
1477478941.064:    166  61   8  997
1477478941.064:    151  61   8  997
1477478941.064:    136  61   8  997
1477478941.064:    125  61   8  997
1477478941.067:    122  61   8  997
1477478941.068:    126  61   8  997
1477478941.069:    135  61   8  997
1477478941.071:    144  61   8  997
1477478941.073:    146  61   8  997
1477478941.082:    143  61   8  997
1477478941.108:    150  61   8  997
1477478941.119:    179  61   8  997
1477478941.119:    220  61   8  997
1477478941.119:    250  61   8  997
1477478941.119:    252  61   8  997
1477478941.119:    236  61   8  997
1477478941.119:    227  61   8  997
1477478941.119:    238  61   8  997
1477478941.120:    257  61   8  997
1477478941.120:    267  61   8  997
1477478941.120:    271  61   8  997
1477478941.120:    283  61   8  997
1477478941.121:    302  61   8  997
1477478941.121:    314  61   8  997
1477478941.121:    308  61   8  997
1477478941.121:    293  61   8  997
1477478941.121:    289  61   8  997
1477478941.121:    300  61   8  997
1477478941.121:    307  61   8  997
1477478941.122:    286  61   8  997
1477478941.122:    235  61   8  997
1477478941.122:    187  61   8  997
1477478941.123:    179  61   8  997
1477478941.123:    214  61   8  997
1477478941.124:    260  61   8  997
1477478941.130:    277  61   8  997
1477478941.130:    265  61   8  997
1477478941.137:    260  61   8  997
1477478941.137:    291  61   8  997
1477478941.137:    344  61   8  997
1477478941.137:    377  61   8  997
1477478941.138:    366  61   8  997
1477478941.139:    330  61   8  997
1477478941.141:    306  61   8  997
1477478941.143:    302  61   8  997
1477478941.145:    300  61   8  997
1477478941.150:    283  61   8  997
1477478941.156:    262  61   8  997
1477478941.156:    252  61   8  997
1477478941.156:    259  61   8  997
1477478941.157:    274  61   8  997
1477478941.160:    292  61   8  997
1477478941.160:    318  61   8  997
1477478941.164:    354  61   8  997
1477478941.164:    390  61   8  997
1477478941.174:    416  61   8  997
1477478941.175:    435  61   8  997
1477478941.175:    447  61   8  997
1477478941.175:    446  61   8  997
1477478941.175:    421  61   8  997
1477478941.177:    378  61   8  997
1477478941.177:    335  61   8  997
1477478941.179:    313  61   8  997
1477478941.181:    309  61   8  997
1477478941.182:    308  61   8  997
1477478941.184:    310  61   8  997
1477478941.187:    332  61   8  997
1477478941.198:    389  61   8  997
1477478941.199:    467  61   8  997
1477478941.199:    531  61   8  997
1477478941.199:    567  61   8  997
1477478941.199:    588  61   8  997
1477478941.199:    614  61   8  997
1477478941.200:    636  61   8  997
1477478941.205:    629  61   8  997
1477478941.205:    584  61   8  997
1477478941.207:    530  61   8  997
1477478941.208:    501  61   8  997
1477478941.209:    497  61   8  997
1477478941.223:    492  61   8  997
1477478941.223:    468  61   8  997
1477478941.223:    442  61   8  997
1477478941.223:    439  61   8  997
1477478941.224:    462  61   8  997
1477478941.224:    487  61   8  997
1477478941.224:    493  61   8  997
1477478941.226:    479  61   8  997
1477478941.253:    458  61   8  997
1477478941.259:    430  61   8  997
1477478941.260:    393  61   8  997
1477478941.260:    353  61   8  997
1477478941.260:    335  61   8  997
1477478941.262:    347  61   8  997
1477478941.274:    371  61   8  997
1477478941.274:    379  61   8  997
1477478941.275:    363  61   8  997
1477478941.275:    345  61   8  997
1477478941.275:    345  61   8  997
1477478941.275:    363  61   8  997
1477478941.275:    377  61   8  997
1477478941.275:    372  61   8  997
1477478941.275:    355  61   8  997
1477478941.275:    347  61   8  997
1477478941.276:    360  61   8  997
1477478941.276:    393  61   8  997
1477478941.276:    433  61   8  997
1477478941.276:    470  61   8  997
1477478941.276:    499  61   8  997
1477478941.276:    522  61   8  997
1477478941.276:    539  61   8  997
1477478941.276:    548  61   8  997
1477478941.279:    544  61   8  997
1477478941.279:    528  61   8  997
1477478941.279:    509  61   8  997
1477478941.281:    495  61   8  997
1477478941.283:    487  61   8  997
1477478941.284:    482  61   8  997
1477478941.287:    477  61   8  997
1477478941.288:    478  61   8  997
1477478941.293:    492  61   8  997
1477478941.293:    519  61   8  997
1477478941.294:    548  61   8  997
1477478941.297:    565  61   8  997
1477478941.302:    564  61   8  997
1477478941.302:    554  61   8  997
1477478941.303:    539  61   8  997
1477478941.304:    522  61   8  997
1477478941.306:    497  61   8  997
1477478941.308:    467  61   8  997
1477478941.311:    440  61   8  997
1477478941.312:    431  61   8  997
1477478941.315:    451  61   8  997
1477478941.316:    493  61   8  997
1477478941.328:    533  61   8  997
1477478941.329:    551  61   8  997
1477478941.329:    546  61   8  997
1477478941.329:    536  61   8  997
1477478941.330:    536  61   8  997
1477478941.330:    537  61   8  997
1477478941.331:    513  61   8  997
1477478941.334:    452  61   8  997
1477478941.334:    378  61   8  997
1477478941.336:    336  61   8  997
1477478941.338:    343  61   8  997
1477478941.339:    378  61   8  997
1477478941.351:    402  61   8  997
1477478941.352:    400  61   8  997
1477478941.352:    398  61   8  997
1477478941.352:    420  61   8  997
1477478941.352:    460  61   8  997
1477478941.353:    479  61   8  997
1477478941.353:    456  61   8  997
1477478941.356:    412  61   8  997
1477478941.357:    380  61   8  997
1477478941.361:    364  61   8  997
1477478941.372:    340  61   8  997
1477478941.372:    292  61   8  997
1477478941.373:    241  61   8  997
1477478941.373:    220  61   8  997
1477478941.373:    232  61   8  997
1477478941.373:    239  61   8  997
1477478941.375:    202  61   8  997
1477478941.375:    127  61   8  997
1477478941.377:     55  61   8  997
1477478941.380:     13  61   8  997
1477478941.392:    -12  61   8  997
1477478941.392:    -57  61   8  997
1477478941.393:   -141  61   8  997
1477478941.393:   -240  61   8  997
1477478941.393:   -309  61   8  997
1477478941.393:   -327  61   8  997
1477478941.394:   -316  61   8  997
1477478941.394:   -323  61   8  997
1477478941.397:   -370  61   8  997
1477478941.398:   -441  61   8  997
1477478941.402:   -499  61   8  997
1477478941.403:   -526  61   8  997
1477478941.422:   -545  61   8  997
1477478941.422:   -587  61   8  997
1477478941.423:   -653  61   8  997
1477478941.423:   -712  61   8  997
1477478941.423:   -739  61   8  997
1477478941.423:   -745  61   8  997
1477478941.423:   -756  61   8  997
1477478941.423:   -782  61   8  997
1477478941.424:   -805  61   8  997
1477478941.424:   -808  61   8  997
1477478941.424:   -806  61   8  997
1477478941.426:   -826  61   8  997
1477478941.430:   -873  61   8  997
1477478941.430:   -917  61   8  997
1477478941.432:   -931  61   8  997
1477478941.434:   -917  61   8  997
1477478941.444:   -906  61   8  997
1477478941.445:   -919  61   8  997
1477478941.445:   -953  61   8  997
1477478941.445:   -986  61   8  997
1477478941.445:  -1004  61   8  997
1477478941.445:  -1011  61   8  997
1477478941.447:  -1030  61   8  997
1477478941.449:  -1091  61   8  997
1477478941.452:  -1220  61   8  997
1477478941.453:  -1402  61   8  997
1477478941.459:  -1583  61   8  997
1477478941.459:  -1711  61   8  997
1477478941.466:  -1784  61   8  997
1477478941.466:  -1835  61   8  997
1477478941.466:  -1877  61   8  997
1477478941.466:  -1866  61   8  997
1477478941.468:  -1743  61   8  997
1477478941.470:  -1498  61   8  997
1477478941.471:  -1156  61   8  997
1477478941.473:   -704  61   8  997
1477478941.474:    -77  61   8  997
1477478941.477:    753  61   8  997
1477478941.486:   1709  61   8  997
1477478941.487:   2651  61   8  997
1477478941.487:   3503  61   8  997
1477478941.487:   4289  61   8  997
1477478941.487:   5033  61   8  997
1477478941.488:   5651  61   8  997
1477478941.491:   5987  61   8  997
1477478941.493:   5949  61   8  997
1477478941.494:   5561  61   8  997
1477478941.499:   4898  61   8  997
1477478941.507:   3989  61   8  997
1477478941.507:   2835  61   8  997
1477478941.507:   1485  61   8  997
1477478941.507:     67  61   8  997
1477478941.507:  -1264  61   8  997
1477478941.508:  -2395  61   8  997
1477478941.512:  -3269  61   8  997
1477478941.513:  -3868  61   8  997
1477478941.514:  -4206  61   8  997
1477478941.516:  -4320  61   8  997
1477478941.526:  -4250  61   8  997
1477478941.526:  -4019  61   8  997
1477478941.526:  -3661  70   9  998
1477478941.527:  -3253  70   9  998
1477478941.527:  -2910  70   9  998
1477478941.528:  -2707  70   9  998
1477478941.529:  -2629  70   9  998
1477478941.535:  -2601  70   9  998
1477478941.535:  -2566  70   9  998
1477478941.537:  -2526  70   9  998
1477478941.550:  -2508  70   9  998
1477478941.550:  -2518  70   9  998
1477478941.551:  -2538  70   9  998
1477478941.552:  -2550  70   9  998
1477478941.553:  -2551  70   9  998
1477478941.553:  -2539  70   9  998
1477478941.555:  -2503  70   9  998
1477478941.555:  -2441  70   9  998
1477478941.556:  -2384  70   9  998
1477478941.557:  -2375  70   9  998
1477478941.568:  -2427  70   9  998
1477478941.569:  -2501  70   9  998
1477478941.569:  -2540  70   9  998
1477478941.570:  -2528  70   9  998
1477478941.570:  -2498  70   9  998
1477478941.570:  -2488  70   9  998
1477478941.570:  -2497  70   9  998
1477478941.571:  -2499  70   9  998
1477478941.574:  -2489  70   9  998
1477478941.574:  -2498  70   9  998
1477478941.578:  -2544  70   9  998
1477478941.579:  -2601  70   9  998
1477478941.594:  -2620  70   9  998
1477478941.594:  -2586  70   9  998
1477478941.594:  -2534  70   9  998
1477478941.594:  -2504  70   9  998
1477478941.594:  -2494  70   9  998
1477478941.594:  -2477  70   9  998
1477478941.596:  -2445  70   9  998
1477478941.597:  -2422  70   9  998
1477478941.598:  -2422  70   9  998
1477478941.599:  -2432  70   9  998
1477478941.600:  -2423  70   9  998
1477478941.603:  -2389  70   9  998
1477478941.604:  -2352  70   9  998
1477478941.609:  -2333  70   9  998
1477478941.614:  -2327  70   9  998
1477478941.614:  -2318  70   9  998
1477478941.615:  -2300  70   9  998
1477478941.615:  -2280  70   9  998
1477478941.617:  -2260  70   9  998
1477478941.621:  -2240  70   9  998
1477478941.622:  -2221  70   9  998
1477478941.623:  -2209  70   9  998
1477478941.633:  -2208  70   9  998
1477478941.633:  -2206  70   9  998
1477478941.633:  -2192  70   9  998
1477478941.633:  -2166  70   9  998
1477478941.633:  -2141  70   9  998
1477478941.636:  -2132  70   9  998
1477478941.637:  -2132  70   9  998
1477478941.642:  -2124  70   9  998
1477478941.652:  -2097  70   9  998
1477478941.652:  -2054  70   9  998
1477478941.652:  -2009  70   9  998
1477478941.652:  -1975  70   9  998
1477478941.652:  -1950  70   9  998
1477478941.652:  -1925  70   9  998
1477478941.654:  -1893  70   9  998
1477478941.654:  -1853  70   9  998
1477478941.655:  -1809  70   9  998
1477478941.658:  -1766  70   9  998
1477478941.664:  -1722  70   9  998
1477478941.665:  -1675  70   9  998
1477478941.671:  -1626  70   9  998
1477478941.671:  -1579  70   9  998
1477478941.671:  -1534  70   9  998
1477478941.671:  -1490  70   9  998
1477478941.672:  -1447  70   9  998
1477478941.673:  -1409  70   9  998
1477478941.676:  -1376  70   9  998
1477478941.677:  -1343  70   9  998
1477478941.682:  -1298  70   9  998
1477478941.683:  -1240  70   9  998
1477478941.690:  -1184  70   9  998
1477478941.690:  -1147  70   9  998
1477478941.690:  -1125  70   9  998
1477478941.690:  -1094  70   9  998
1477478941.691:  -1035  70   9  998
1477478941.695:   -960  70   9  998
1477478941.695:   -896  70   9  998
1477478941.697:   -854  70   9  998
1477478941.699:   -815  70   9  998
1477478941.700:   -751  70   9  998
1477478941.705:   -656  70   9  998
1477478941.705:   -557  70   9  998
1477478941.714:   -475  70   9  998
1477478941.714:   -408  70   9  998
1477478941.714:   -339  70   9  998
1477478941.714:   -258  70   9  998
1477478941.715:   -172  70   9  998
1477478941.717:    -97  70   9  998
1477478941.718:    -32  70   9  998
1477478941.722:     34  70   9  998
1477478941.734:    107  70   9  998
1477478941.734:    180  70   9  998
1477478941.735:    244  70   9  998
1477478941.735:    298  70   9  998
1477478941.735:    355  70   9  998
1477478941.735:    426  70   9  998
1477478941.735:    509  70   9  998
1477478941.737:    595  70   9  998
1477478941.738:    673  70   9  998
1477478941.740:    745  70   9  998
1477478941.747:    822  70   9  998
1477478941.747:    902  70   9  998
1477478941.752:    966  70   9  998
1477478941.752:    990  70   9  998
1477478941.752:    969  70   9  998
1477478941.752:    926  70   9  998
1477478941.753:    890  70   9  998
1477478941.760:    875  70   9  998
1477478941.769:    871  70   9  998
1477478941.769:    866  70   9  998
1477478941.769:    865  70   9  998
1477478941.770:    876  70   9  998
1477478941.770:    902  70   9  998
1477478941.770:    933  70   9  998
1477478941.770:    958  70   9  998
1477478941.772:    971  70   9  998
1477478941.773:    974  70   9  998
1477478941.775:    964  70   9  998
1477478941.777:    939  70   9  998
1477478941.782:    904  70   9  998
1477478941.786:    875  70   9  998
1477478941.786:    863  70   9  998
1477478941.788:    868  70   9  998
1477478941.788:    869  70   9  998
1477478941.792:    847  70   9  998
1477478941.793:    787  70   9  998
1477478941.798:    707  70   9  998
1477478941.799:    635  70   9  998
1477478941.804:    596  70   9  998
1477478941.805:    576  70   9  998
1477478941.806:    540  70   9  998
1477478941.807:    463  70   9  998
1477478941.808:    357  70   9  998
1477478941.809:    267  70   9  998
1477478941.811:    218  70   9  998
1477478941.812:    188  70   9  998
1477478941.821:    140  70   9  998
1477478941.821:     59  70   9  998
1477478941.823:    -24  70   9  998
1477478941.823:    -72  70   9  998
1477478941.824:    -86  70   9  998
1477478941.824:    -95  70   9  998
1477478941.824:   -128  70   9  998
1477478941.827:   -182  70   9  998
1477478941.886:   -232  70   9  998
1477478941.886:   -268  70   9  998
1477478941.886:   -299  70   9  998
1477478941.886:   -339  70   9  998
1477478941.886:   -391  70   9  998
1477478941.886:   -443  70   9  998
1477478941.886:   -481  70   9  998
1477478941.887:   -503  70   9  998
1477478941.887:   -513  70   9  998
1477478941.888:   -523  70   9  998
1477478941.888:   -542  70   9  998
1477478941.888:   -566  70   9  998
1477478941.888:   -583  70   9  998
1477478941.889:   -583  70   9  998
1477478941.889:   -567  70   9  998
1477478941.889:   -554  70   9  998
1477478941.889:   -558  70   9  998
1477478941.889:   -578  70   9  998
1477478941.889:   -598  70   9  998
1477478941.890:   -607  70   9  998
1477478941.890:   -607  70   9  998
1477478941.890:   -607  70   9  998
1477478941.890:   -610  70   9  998
1477478941.891:   -605  70   9  998
1477478941.891:   -586  70   9  998
1477478941.891:   -556  70   9  998
1477478941.892:   -530  70   9  998
1477478941.892:   -514  70   9  998
1477478941.892:   -506  70   9  998
1477478941.892:   -494  70   9  998
1477478941.892:   -476  70   9  998
1477478941.893:   -454  70   9  998
1477478941.893:   -437  70   9  998
1477478941.893:   -426  70   9  998
1477478941.895:   -415  70   9  998
1477478941.897:   -393  70   9  998
1477478941.905:   -360  70   9  998
1477478941.906:   -321  70   9  998
1477478941.906:   -285  70   9  998
1477478941.906:   -259  70   9  998
1477478941.910:   -242  70   9  998
1477478941.913:   -230  70   9  998
1477478941.914:   -221  70   9  998
1477478941.915:   -218  70   9  998
1477478941.915:   -218  70   9  998
1477478941.917:   -214  70   9  998
1477478941.928:   -203  70   9  998
1477478941.928:   -186  70   9  998
1477478941.929:   -174  70   9  998
1477478941.929:   -177  70   9  998
1477478941.929:   -189  70   9  998
1477478941.929:   -195  70   9  998
1477478941.931:   -185  70   9  998
1477478941.933:   -162  70   9  998
1477478941.935:   -139  70   9  998
1477478941.937:   -128  70   9  998
1477478941.948:   -124  70   9  998
1477478941.948:   -114  70   9  998
1477478941.948:    -93  70   9  998
1477478941.948:    -68  70   9  998
1477478941.949:    -56  70   9  998
1477478941.949:    -63  70   9  998
1477478941.951:    -82  70   9  998
1477478941.952:   -102  70   9  998
1477478941.955:   -123  70   9  998
1477478941.957:   -150  70   9  998
1477478942.020:   -183  70   9  998
1477478942.020:   -216  70   9  998
1477478942.020:   -240  70   9  998
1477478942.020:   -256  70   9  998
1477478942.020:   -269  70   9  998
1477478942.020:   -282  70   9  998
1477478942.020:   -291  70   9  998
1477478942.020:   -297  70   9  998
1477478942.021:   -300  70   9  998
1477478942.021:   -296  70   9  998
1477478942.021:   -286  70   9  998
1477478942.021:   -275  70   9  998
1477478942.021:   -274  70   9  998
1477478942.021:   -287  70   9  998
1477478942.021:   -306  70   9  998
1477478942.022:   -320  70   9  998
1477478942.022:   -330  70   9  998
1477478942.022:   -348  70   9  998
1477478942.022:   -372  70   9  998
1477478942.022:   -385  70   9  998
1477478942.022:   -379  70   9  998
1477478942.022:   -371  70   9  998
1477478942.023:   -385  70   9  998
1477478942.023:   -417  70   9  998
1477478942.023:   -435  70   9  998
1477478942.023:   -418  70   9  998
1477478942.023:   -387  70   9  998
1477478942.023:   -379  70   9  998
1477478942.023:   -395  70   9  998
1477478942.023:   -401  70   9  998
1477478942.024:   -369  70   9  998
1477478942.024:   -322  70   9  998
1477478942.024:   -299  70   9  998
1477478942.024:   -307  70   9  998
1477478942.027:   -316  70   9  998
1477478942.027:   -302  70   9  998
1477478942.029:   -279  70   9  998
1477478942.035:   -279  70   9  998
1477478942.042:   -303  70   9  998
1477478942.042:   -321  70   9  998
1477478942.042:   -312  70   9  998
1477478942.042:   -288  70   9  998
1477478942.044:   -275  70   9  998
1477478942.044:   -277  70   9  998
1477478942.045:   -280  70   9  998
1477478942.048:   -268  70   9  998
1477478942.049:   -248  70   9  998
1477478942.052:   -232  70   9  998
1477478942.053:   -219  70   9  998
1477478942.054:   -201  70   9  998
1477478942.067:   -175  70   9  998
1477478942.067:   -148  70   9  998
1477478942.067:   -128  70   9  998
1477478942.067:   -115  70   9  998
1477478942.067:   -105  70   9  998
1477478942.068:    -97  70   9  998
1477478942.068:    -99  70   9  998
1477478942.070:   -110  70   9  998
1477478942.076:   -123  70   9  998
1477478942.076:   -129  70   9  998
1477478942.086:   -128  70   9  998
1477478942.086:   -125  70   9  998
1477478942.086:   -124  70   9  998
1477478942.114:   -124  70   9  998
1477478942.114:   -120  70   9  998
1477478942.114:   -112  70   9  998
1477478942.114:   -103  70   9  998
1477478942.114:    -93  70   9  998
1477478942.115:    -82  70   9  998
1477478942.115:    -68  70   9  998
1477478942.115:    -50  70   9  998
1477478942.117:    -31  70   9  998
1477478942.129:    -13  70   9  998
1477478942.129:      5  70   9  998
1477478942.129:     27  70   9  998
1477478942.129:     52  70   9  998
1477478942.129:     69  70   9  998
1477478942.129:     66  70   9  998
1477478942.130:     39  70   9  998
1477478942.130:      8  70   9  998
1477478942.130:     -1  70   9  998
1477478942.130:     18  70   9  998
1477478942.131:     41  70   9  998
1477478942.131:     39  70   9  998
1477478942.131:      9  70   9  998
1477478942.131:    -17  70   9  998
1477478942.131:    -10  70   9  998
1477478942.131:     22  70   9  998
1477478942.134:     45  70   9  998
1477478942.134:     41  70   9  998
1477478942.134:     33  70   9  998
1477478942.137:     47  70   9  998
1477478942.139:     78  70   9  998
1477478942.144:     95  70   9  998
1477478942.151:     85  70   9  998
1477478942.151:     66  70   9  998
1477478942.152:     67  70   9  998
1477478942.152:     88  70   9  998
1477478942.152:    101  70   9  998
1477478942.153:     95  70   9  998
1477478942.158:     86  70   9  998
1477478942.158:     91  70   9  998
1477478942.170:    107  70   9  998
1477478942.170:    117  70   9  998
1477478942.171:    115  70   9  998
1477478942.171:    113  70   9  998
1477478942.172:    117  70   9  998
1477478942.174:    118  70   9  998
1477478942.174:    102  70   9  998
1477478942.174:     75  70   9  998
1477478942.176:     55  70   9  998
1477478942.179:     54  70   9  998
1477478942.188:     62  70   9  998
1477478942.188:     64  70   9  998
1477478942.189:     51  70   9  998
1477478942.189:     30  70   9  998
1477478942.189:      7  70   9  998
1477478942.190:    -12  70   9  998
1477478942.190:    -22  70   9  998
1477478942.192:    -25  70   9  998
1477478942.194:    -24  70   9  998
1477478942.199:    -27  70   9  998
1477478942.205:    -38  70   9  998
1477478942.205:    -52  70   9  998
1477478942.206:    -58  70   9  998
1477478942.206:    -52  70   9  998
1477478942.206:    -41  70   9  998
1477478942.208:    -38  70   9  998
1477478942.211:    -49  70   9  998
1477478942.211:    -70  70   9  998
1477478942.214:    -88  70   9  998
1477478942.217:    -95  70   9  998
1477478942.218:    -93  70   9  998
1477478942.219:    -88  70   9  998
1477478942.222:    -85  70   9  998
1477478942.228:    -88  70   9  998
1477478942.237:    -97  70   9  998
1477478942.238:   -107  70   9  998
1477478942.238:   -112  70   9  998
1477478942.240:   -114  70   9  998
1477478942.240:   -119  70   9  998
1477478942.241:   -134  70   9  998
1477478942.241:   -158  70   9  998
1477478942.241:   -180  70   9  998
1477478942.242:   -193  70   9  998
1477478942.243:   -198  70   9  998
1477478942.244:   -203  70   9  998
1477478942.250:   -212  70   9  998
1477478942.260:   -225  70   9  998
1477478942.260:   -236  70   9  998
1477478942.260:   -243  70   9  998
1477478942.260:   -249  70   9  998
1477478942.260:   -253  70   9  998
1477478942.261:   -253  70   9  998
1477478942.261:   -245  70   9  998
1477478942.263:   -235  70   9  998
1477478942.267:   -229  70   9  998
1477478942.267:   -231  70   9  998
1477478942.270:   -237  70   9  998
1477478942.271:   -238  70   9  998
1477478942.272:   -227  70   9  998
1477478942.275:   -198  70   9  998
1477478942.277:   -153  70   9  998
1477478942.284:   -103  70   9  998
1477478942.284:    -65  70   9  998
1477478942.285:    -48  70   9  998
1477478942.285:    -46  70   9  998
1477478942.286:    -44  70   9  998
1477478942.289:    -34  70   9  998
1477478942.291:    -28  70   9  998
1477478942.296:    -43  70   9  998
1477478942.296:    -75  70   9  998
1477478942.313:   -102  70   9  998
1477478942.313:   -107  70   9  998
1477478942.314:    -94  70   9  998
1477478942.314:    -84  70   9  998
1477478942.314:    -84  70   9  998
1477478942.314:    -86  70   9  998
1477478942.314:    -78  70   9  998
1477478942.314:    -68  70   9  998
1477478942.314:    -77  70   9  998
1477478942.315:   -109  70   9  998
1477478942.316:   -147  70   9  998
1477478942.319:   -177  70   9  998
1477478942.319:   -200  70   9  998
1477478942.323:   -233  70   9  998
1477478942.323:   -288  70   9  998
1477478942.327:   -359  70   9  998
1477478942.328:   -427  70   9  998
1477478942.330:   -472  70   9  998
1477478942.340:   -493  70   9  998
1477478942.340:   -498  70   9  998
1477478942.340:   -503  70   9  998
1477478942.341:   -518  70   9  998
1477478942.341:   -539  70   9  998
1477478942.342:   -550  70   9  998
1477478942.343:   -546  70   9  998
1477478942.346:   -534  70   9  998
1477478942.352:   -533  70   9  998
1477478942.352:   -550  70   9  998
1477478942.360:   -576  70   9  998
1477478942.360:   -597  70   9  998
1477478942.360:   -608  70   9  998
1477478942.360:   -617  70   9  998
1477478942.360:   -629  70   9  998
1477478942.365:   -638  70   9  998
1477478942.365:   -640  70   9  998
1477478942.366:   -638  70   9  998
1477478942.367:   -639  70   9  998
1477478942.368:   -640  70   9  998
1477478942.370:   -633  70   9  998
1477478942.373:   -617  70   9  998
1477478942.381:   -597  70   9  998
1477478942.381:   -580  70   9  998
1477478942.381:   -562  70   9  998
1477478942.382:   -533  70   9  998
1477478942.382:   -502  70   9  998
1477478942.384:   -505  70   9  998
1477478942.387:   -581  70   9  998
1477478942.391:   -722  70   9  998
1477478942.399:   -876  70   9  998
1477478942.400:   -998  70   9  998
1477478942.400:  -1089  70   9  998
1477478942.401:  -1179  70   9  998
1477478942.401:  -1257  70   9  998
1477478942.402:  -1260  70   9  998
1477478942.405:  -1141  70   9  998
1477478942.406:   -910  70   9  998
1477478942.407:   -589  70   9  998
1477478942.409:   -134  70   9  998
1477478942.417:    554  70   9  998
1477478942.418:   1499  70   9  998
1477478942.419:   2574  66   8  996
1477478942.419:   3597  66   8  996
1477478942.419:   4503  66   8  996
1477478942.421:   5380  66   8  996
1477478942.423:   6302  66   8  996
1477478942.423:   7179  66   8  996
1477478942.426:   7788  66   8  996
1477478942.428:   7957  66   8  996
1477478942.435:   7689  66   8  996
1477478942.436:   7102  66   8  996
1477478942.436:   6300  66   8  996
1477478942.437:   5308  66   8  996
1477478942.438:   4124  66   8  996
1477478942.440:   2774  66   8  996
1477478942.442:   1340  66   8  996
1477478942.446:    -52  66   8  996
1477478942.454:  -1255  66   8  996
1477478942.454:  -2152  66   8  996
1477478942.454:  -2715  66   8  996
1477478942.455:  -3005  66   8  996
1477478942.455:  -3108  66   8  996
1477478942.455:  -3062  66   8  996
1477478942.460:  -2868  66   8  996
1477478942.462:  -2550  66   8  996
1477478942.471:  -2195  66   8  996
1477478942.472:  -1902  66   8  996
1477478942.472:  -1718  66   8  996
1477478942.473:  -1625  66   8  996
1477478942.473:  -1586  66   8  996
1477478942.475:  -1589  66   8  996
1477478942.475:  -1630  66   8  996
1477478942.476:  -1698  66   8  996
1477478942.477:  -1774  66   8  996
1477478942.479:  -1837  66   8  996
1477478942.489:  -1871  66   8  996
1477478942.490:  -1868  66   8  996
1477478942.491:  -1832  66   8  996
1477478942.492:  -1781  66   8  996
1477478942.493:  -1734  66   8  996
1477478942.493:  -1709  66   8  996
1477478942.494:  -1701  66   8  996
1477478942.495:  -1699  66   8  996
1477478942.498:  -1695  66   8  996
1477478942.502:  -1690  66   8  996
1477478942.514:  -1680  66   8  996
1477478942.514:  -1660  66   8  996
1477478942.535:  -1633  66   8  996
1477478942.539:  -1606  66   8  996
1477478942.553:  -1591  66   8  996
1477478942.555:  -1592  66   8  996
1477478942.557:  -1599  66   8  996
1477478942.558:  -1601  66   8  996
1477478942.559:  -1595  66   8  996
1477478942.559:  -1588  66   8  996
1477478942.559:  -1583  66   8  996
1477478942.559:  -1574  66   8  996
1477478942.559:  -1552  66   8  996
1477478942.560:  -1517  66   8  996
1477478942.560:  -1475  66   8  996
1477478942.560:  -1436  66   8  996
1477478942.560:  -1399  66   8  996
1477478942.560:  -1364  66   8  996
1477478942.561:  -1333  66   8  996
1477478942.561:  -1313  66   8  996
1477478942.572:  -1303  66   8  996
1477478942.572:  -1297  66   8  996
1477478942.573:  -1293  66   8  996
1477478942.573:  -1296  66   8  996
1477478942.573:  -1311  66   8  996
1477478942.573:  -1330  66   8  996
1477478942.574:  -1338  66   8  996
1477478942.574:  -1320  66   8  996
1477478942.574:  -1281  66   8  996
1477478942.574:  -1236  66   8  996
1477478942.574:  -1198  66   8  996
1477478942.575:  -1165  66   8  996
1477478942.575:  -1135  66   8  996
1477478942.575:  -1108  66   8  996
1477478942.575:  -1093  66   8  996
1477478942.575:  -1089  66   8  996
1477478942.576:  -1092  66   8  996
1477478942.576:  -1095  66   8  996
1477478942.576:  -1095  66   8  996
1477478942.577:  -1091  66   8  996
1477478942.579:  -1078  66   8  996
1477478942.586:  -1051  66   8  996
1477478942.590:  -1013  66   8  996
1477478942.590:   -976  66   8  996
1477478942.594:   -949  66   8  996
1477478942.594:   -925  66   8  996
1477478942.594:   -893  66   8  996
1477478942.596:   -848  66   8  996
1477478942.598:   -801  66   8  996
1477478942.599:   -760  66   8  996
1477478942.600:   -728  66   8  996
1477478942.602:   -696  66   8  996
1477478942.602:   -658  66   8  996
1477478942.604:   -617  66   8  996
1477478942.607:   -577  66   8  996
1477478942.611:   -540  66   8  996
1477478942.625:   -508  66   8  996
1477478942.625:   -486  66   8  996
1477478942.625:   -473  66   8  996
1477478942.625:   -462  66   8  996
1477478942.625:   -440  66   8  996
1477478942.626:   -407  66   8  996
1477478942.626:   -372  66   8  996
1477478942.626:   -349  66   8  996
1477478942.627:   -340  66   8  996
1477478942.628:   -332  66   8  996
1477478942.629:   -312  66   8  996
1477478942.632:   -274  66   8  996
1477478942.634:   -229  66   8  996
1477478942.640:   -188  66   8  996
1477478942.643:   -157  66   8  996
1477478942.643:   -130  66   8  996
1477478942.643:   -100  66   8  996
1477478942.644:    -64  66   8  996
1477478942.645:    -28  66   8  996
1477478942.648:     -1  66   8  996
1477478942.652:     18  66   8  996
1477478942.653:     37  66   8  996
1477478942.655:     67  66   8  996
1477478942.657:    110  66   8  996
1477478942.658:    164  66   8  996
1477478942.660:    226  66   8  996
1477478942.662:    290  66   8  996
1477478942.666:    353  66   8  996
1477478942.686:    412  66   8  996
1477478942.686:    467  66   8  996
1477478942.686:    520  66   8  996
1477478942.686:    568  66   8  996
1477478942.686:    606  66   8  996
1477478942.687:    629  66   8  996
1477478942.687:    642  66   8  996
1477478942.687:    654  66   8  996
1477478942.687:    669  66   8  996
1477478942.687:    680  66   8  996
1477478942.687:    681  66   8  996
1477478942.689:    672  66   8  996
1477478942.690:    662  66   8  996
1477478942.699:    659  66   8  996
1477478942.704:    662  66   8  996
1477478942.704:    667  66   8  996
1477478942.704:    670  66   8  996
1477478942.704:    673  66   8  996
1477478942.705:    678  66   8  996
1477478942.707:    681  66   8  996
1477478942.710:    676  66   8  996
1477478942.710:    661  66   8  996
1477478942.714:    644  66   8  996
1477478942.715:    629  66   8  996
1477478942.722:    612  66   8  996
1477478942.772:    583  66   8  996
1477478942.777:    536  66   8  996
1477478942.777:    479  66   8  996
1477478942.777:    426  66   8  996
1477478942.777:    377  66   8  996
1477478942.777:    316  66   8  996
1477478942.778:    231  66   8  996
1477478942.778:    132  66   8  996
1477478942.778:     40  66   8  996
1477478942.778:    -28  66   8  996
1477478942.778:    -79  66   8  996
1477478942.778:   -129  66   8  996
1477478942.778:   -184  66   8  996
1477478942.779:   -237  66   8  996
1477478942.779:   -278  66   8  996
1477478942.779:   -311  66   8  996
1477478942.779:   -346  66   8  996
1477478942.779:   -390  66   8  996
1477478942.779:   -440  66   8  996
1477478942.779:   -490  66   8  996
1477478942.780:   -539  66   8  996
1477478942.781:   -588  66   8  996
1477478942.781:   -640  66   8  996
1477478942.781:   -695  66   8  996
1477478942.781:   -751  66   8  996
1477478942.781:   -810  66   8  996
1477478942.781:   -874  66   8  996
1477478942.781:   -937  66   8  996
1477478942.781:   -991  66   8  996
1477478942.782:  -1031  66   8  996
1477478942.782:  -1059  66   8  996
1477478942.782:  -1085  66   8  996
1477478942.782:  -1114  66   8  996
1477478942.782:  -1144  66   8  996
1477478942.783:  -1165  66   8  996
1477478942.789:  -1177  66   8  996
1477478942.789:  -1190  66   8  996
1477478942.791:  -1216  66   8  996
1477478942.791:  -1255  66   8  996
1477478942.801:  -1294  66   8  996
1477478942.801:  -1322  66   8  996
1477478942.801:  -1336  66   8  996
1477478942.801:  -1343  66   8  996
1477478942.802:  -1350  66   8  996
1477478942.804:  -1354  66   8  996
1477478942.804:  -1348  66   8  996
1477478942.805:  -1335  66   8  996
1477478942.807:  -1322  66   8  996
1477478942.808:  -1317  66   8  996
1477478942.810:  -1316  66   8  996
1477478942.813:  -1310  66   8  996
1477478942.827:  -1295  66   8  996
1477478942.827:  -1278  66   8  996
1477478942.827:  -1267  66   8  996
1477478942.827:  -1263  66   8  996
1477478942.827:  -1260  66   8  996
1477478942.828:  -1252  66   8  996
1477478942.828:  -1241  66   8  996
1477478942.831:  -1229  66   8  996
1477478942.831:  -1215  66   8  996
1477478942.835:  -1199  66   8  996
1477478942.835:  -1183  66   8  996
1477478942.838:  -1170  66   8  996
1477478942.838:  -1164  66   8  996
1477478942.840:  -1161  66   8  996
1477478942.850:  -1156  66   8  996
1477478942.850:  -1150  66   8  996
1477478942.851:  -1149  66   8  996
1477478942.851:  -1152  66   8  996
1477478942.851:  -1157  66   8  996
1477478942.852:  -1156  66   8  996
1477478942.854:  -1150  66   8  996
1477478942.859:  -1141  66   8  996
1477478942.859:  -1132  66   8  996
1477478942.860:  -1119  66   8  996
1477478942.870:  -1099  66   8  996
1477478942.871:  -1077  66   8  996
1477478942.871:  -1067  66   8  996
1477478942.871:  -1072  66   8  996
1477478942.873:  -1086  66   8  996
1477478942.873:  -1098  66   8  996
1477478942.874:  -1097  66   8  996
1477478942.876:  -1086  66   8  996
1477478942.877:  -1079  66   8  996
1477478942.881:  -1084  66   8  996
1477478942.882:  -1094  66   8  996
1477478942.886:  -1098  66   8  996
1477478942.894:  -1086  66   8  996
1477478942.894:  -1062  66   8  996
1477478942.894:  -1038  66   8  996
1477478942.894:  -1024  66   8  996
1477478942.894:  -1016  66   8  996
1477478942.895:  -1006  66   8  996
1477478942.901:   -988  66   8  996
1477478942.901:   -964  66   8  996
1477478942.902:   -943  66   8  996
1477478942.903:   -930  66   8  996
1477478942.904:   -930  66   8  996
1477478942.910:   -939  66   8  996
1477478942.919:   -952  66   8  996
1477478942.919:   -963  66   8  996
1477478942.919:   -973  66   8  996
1477478942.919:   -986  66   8  996
1477478942.920:  -1005  66   8  996
1477478942.920:  -1026  66   8  996
1477478942.922:  -1039  66   8  996
1477478942.923:  -1040  66   8  996
1477478942.931:  -1035  66   8  996
1477478942.931:  -1034  66   8  996
1477478942.931:  -1040  66   8  996
1477478942.932:  -1049  66   8  996
1477478942.932:  -1056  66   8  996
1477478942.934:  -1052  66   8  996
1477478942.937:  -1038  66   8  996
1477478942.941:  -1020  66   8  996
1477478942.941:  -1008  66   8  996
1477478942.943:  -1008  66   8  996
1477478942.956:  -1014  66   8  996
1477478942.957:  -1015  66   8  996
1477478942.957:  -1003  66   8  996
1477478942.957:   -987  66   8  996
1477478942.957:   -980  66   8  996
1477478942.957:   -983  66   8  996
1477478942.957:   -986  66   8  996
1477478942.958:   -975  66   8  996
1477478942.959:   -953  66   8  996
1477478942.962:   -934  66   8  996
1477478942.964:   -932  66   8  996
1477478942.970:   -946  66   8  996
1477478942.977:   -961  66   8  996
1477478942.978:   -967  66   8  996
1477478942.978:   -965  66   8  996
1477478942.978:   -965  66   8  996
1477478942.978:   -970  66   8  996
1477478942.978:   -978  66   8  996
1477478942.982:   -983  66   8  996
1477478942.983:   -982  66   8  996
1477478942.986:   -985  66   8  996
1477478942.986:   -998  66   8  996
1477478942.987:  -1013  66   8  996
1477478942.989:  -1023  66   8  996
1477478942.990:  -1025  66   8  996
1477478942.996:  -1029  66   8  996
1477478943.006:  -1038  66   8  996
1477478943.007:  -1046  66   8  996
1477478943.007:  -1043  66   8  996
1477478943.007:  -1030  66   8  996
1477478943.007:  -1024  66   8  996
1477478943.007:  -1039  66   8  996
1477478943.010:  -1066  66   8  996
1477478943.010:  -1083  66   8  996
1477478943.012:  -1084  66   8  996
1477478943.013:  -1083  66   8  996
1477478943.014:  -1100  66   8  996
1477478943.017:  -1129  66   8  996
1477478943.030:  -1148  66   8  996
1477478943.030:  -1144  66   8  996
1477478943.030:  -1133  66   8  996
1477478943.030:  -1141  66   8  996
1477478943.030:  -1172  66   8  996
1477478943.030:  -1199  66   8  996
1477478943.031:  -1202  66   8  996
1477478943.034:  -1192  66   8  996
1477478943.038:  -1194  66   8  996
1477478943.039:  -1213  66   8  996
1477478943.052:  -1231  66   8  996
1477478943.052:  -1227  66   8  996
1477478943.052:  -1209  66   8  996
1477478943.053:  -1202  66   8  996
1477478943.053:  -1213  66   8  996
1477478943.054:  -1227  66   8  996
1477478943.054:  -1227  66   8  996
1477478943.054:  -1217  66   8  996
1477478943.054:  -1209  66   8  996
1477478943.056:  -1207  66   8  996
1477478943.058:  -1201  66   8  996
1477478943.061:  -1183  66   8  996
1477478943.073:  -1163  66   8  996
1477478943.073:  -1149  66   8  996
1477478943.073:  -1143  66   8  996
1477478943.073:  -1135  66   8  996
1477478943.073:  -1121  66   8  996
1477478943.074:  -1107  66   8  996
1477478943.078:  -1098  66   8  996
1477478943.078:  -1089  66   8  996
1477478943.079:  -1072  66   8  996
1477478943.080:  -1042  66   8  996
1477478943.082:  -1008  66   8  996
1477478943.083:   -988  66   8  996
1477478943.085:   -994  66   8  996
1477478943.122:  -1014  66   8  996
1477478943.127:  -1027  66   8  996
1477478943.128:  -1023  66   8  996
1477478943.129:  -1014  66   8  996
1477478943.133:  -1023  66   8  996
1477478943.134:  -1054  66   8  996
1477478943.135:  -1088  66   8  996
1477478943.136:  -1095  66   8  996
1477478943.136:  -1071  66   8  996
1477478943.138:  -1042  66   8  996
1477478943.140:  -1033  66   8  996
1477478943.140:  -1042  66   8  996
1477478943.140:  -1045  66   8  996
1477478943.140:  -1026  66   8  996
1477478943.141:   -996  66   8  996
1477478943.141:   -978  66   8  996
1477478943.141:   -983  66   8  996
1477478943.141:   -997  66   8  996
1477478943.141:  -1007  66   8  996
1477478943.142:  -1018  66   8  996
1477478943.142:  -1037  66   8  996
1477478943.142:  -1061  66   8  996
1477478943.142:  -1074  66   8  996
1477478943.143:  -1070  66   8  996
1477478943.143:  -1061  66   8  996
1477478943.143:  -1057  66   8  996
1477478943.143:  -1053  66   8  996
1477478943.144:  -1025  66   8  996
1477478943.144:   -972  66   8  996
1477478943.147:   -920  66   8  996
1477478943.148:   -898  66   8  996
1477478943.157:   -904  66   8  996
1477478943.157:   -909  66   8  996
1477478943.157:   -888  66   8  996
1477478943.157:   -854  66   8  996
1477478943.158:   -834  66   8  996
1477478943.163:   -842  66   8  996
1477478943.163:   -861  66   8  996
1477478943.163:   -869  66   8  996
1477478943.169:   -859  66   8  996
1477478943.169:   -841  66   8  996
1477478943.177:   -824  66   8  996
1477478943.177:   -810  66   8  996
1477478943.177:   -795  66   8  996
1477478943.177:   -782  66   8  996
1477478943.179:   -772  66   8  996
1477478943.179:   -761  66   8  996
1477478943.179:   -743  66   8  996
1477478943.182:   -718  66   8  996
1477478943.184:   -693  66   8  996
1477478943.185:   -672  66   8  996
1477478943.188:   -656  66   8  996
1477478943.189:   -646  66   8  996
1477478943.199:   -642  66   8  996
1477478943.199:   -640  66   8  996
1477478943.199:   -633  66   8  996
1477478943.199:   -616  66   8  996
1477478943.200:   -597  66   8  996
1477478943.202:   -590  66   8  996
1477478943.203:   -602  66   8  996
1477478943.207:   -620  66   8  996
1477478943.208:   -617  66   8  996
1477478943.209:   -586  66   8  996
1477478943.219:   -548  66   8  996
1477478943.219:   -531  66   8  996
1477478943.219:   -539  66   8  996
1477478943.219:   -548  66   8  996
1477478943.219:   -534  66   8  996
1477478943.221:   -500  66   8  996
1477478943.223:   -471  66   8  996
1477478943.225:   -465  66   8  996
1477478943.227:   -471  66   8  996
1477478943.230:   -473  66   8  996
1477478943.239:   -465  66   8  996
1477478943.239:   -454  66   8  996
1477478943.239:   -443  66   8  996
1477478943.239:   -425  66   8  996
1477478943.239:   -396  66   8  996
1477478943.240:   -369  66   8  996
1477478943.243:   -360  66   8  996
1477478943.244:   -371  66   8  996
1477478943.249:   -386  66   8  996
1477478943.249:   -390  66   8  996
1477478943.264:   -388  66   8  996
1477478943.265:   -399  66   8  996
1477478943.265:   -439  66   8  996
1477478943.265:   -498  66   8  996
1477478943.265:   -559  66   8  996
1477478943.265:   -607  66   8  996
1477478943.265:   -642  66   8  996
1477478943.265:   -675  66   8  996
1477478943.267:   -708  66   8  996
1477478943.268:   -734  66   8  996
1477478943.270:   -746  66   8  996
1477478943.272:   -741  66   8  996
1477478943.276:   -730  66   8  996
1477478943.276:   -717  66   8  996
1477478943.278:   -705  66   8  996
1477478943.280:   -689  66   8  996
1477478943.294:   -670  66   8  996
1477478943.295:   -660  66   8  996
1477478943.295:   -672  66   8  996
1477478943.295:   -699  66   8  996
1477478943.295:   -723  66   8  996
1477478943.295:   -725  66   8  996
1477478943.295:   -712  66   8  996
1477478943.296:   -703  66   8  996
1477478943.298:   -713  66   8  996
1477478943.299:   -728  66   8  996
1477478943.304:   -728  66   8  996
1477478943.304:   -714  66   8  996
1477478943.305:   -707  66   8  996
1477478943.308:   -722  66   8  996
1477478943.317:   -745  66   8  996
1477478943.318:   -751  66   8  996
1477478943.318:   -730  66   8  996
1477478943.318:   -705  66   8  996
1477478943.318:   -720  66   8  996
1477478943.320:   -804  66   8  996
1477478943.321:   -940  66   8  996
1477478943.323:  -1082  66   8  996
1477478943.325:  -1195  66   8  996
1477478943.327:  -1279  66   8  996
1477478943.336:  -1350  66   8  996
1477478943.336:  -1396  66   8  996
1477478943.336:  -1368  66   8  996
1477478943.336:  -1231  66   8  996
1477478943.337:  -1000  66   8  996
1477478943.339:   -691  66   8  996
1477478943.341:   -254  66   8  996
1477478943.345:    410  66   8  996
1477478943.355:   1324  66   8  996
1477478943.355:   2360  66   8  996
1477478943.355:   3339  65   8  999
1477478943.356:   4201  65   8  999
1477478943.356:   5039  65   8  999
1477478943.356:   5931  65   8  999
1477478943.359:   6782  65   8  999
1477478943.359:   7363  65   8  999
1477478943.361:   7515  65   8  999
1477478943.362:   7253  65   8  999
1477478943.364:   6690  65   8  999
1477478943.368:   5894  65   8  999
1477478943.376:   4872  65   8  999
1477478943.376:   3633  65   8  999
1477478943.376:   2250  65   8  999
1477478943.377:    838  65   8  999
1477478943.381:   -480  65   8  999
1477478943.381:  -1580  65   8  999
1477478943.388:  -2364  65   8  999
1477478943.388:  -2812  65   8  999
1477478943.402:  -3007  65   8  999
1477478943.403:  -3049  65   8  999
1477478943.403:  -2965  65   8  999
1477478943.403:  -2722  65   8  999
1477478943.403:  -2338  65   8  999
1477478943.403:  -1936  65   8  999
1477478943.404:  -1663  65   8  999
1477478943.404:  -1560  65   8  999
1477478943.404:  -1547  65   8  999
1477478943.404:  -1531  65   8  999
1477478943.404:  -1503  65   8  999
1477478943.405:  -1514  65   8  999
1477478943.408:  -1586  65   8  999
1477478943.409:  -1680  65   8  999
1477478943.414:  -1746  65   8  999
1477478943.414:  -1762  65   8  999
1477478943.423:  -1738  65   8  999
1477478943.423:  -1690  65   8  999
1477478943.423:  -1621  65   8  999
1477478943.423:  -1542  65   8  999
1477478943.424:  -1484  65   8  999
1477478943.428:  -1466  65   8  999
1477478943.428:  -1477  65   8  999
1477478943.431:  -1487  65   8  999
1477478943.431:  -1477  65   8  999
1477478943.433:  -1452  65   8  999
1477478943.444:  -1423  65   8  999
1477478943.444:  -1391  65   8  999
1477478943.444:  -1353  65   8  999
1477478943.445:  -1318  65   8  999
1477478943.445:  -1302  65   8  999
1477478943.445:  -1310  65   8  999
1477478943.448:  -1324  65   8  999
1477478943.449:  -1316  65   8  999
1477478943.455:  -1281  65   8  999
1477478943.456:  -1233  65   8  999
1477478943.470:  -1188  65   8  999
1477478943.470:  -1153  65   8  999
1477478943.471:  -1127  65   8  999
1477478943.471:  -1113  65   8  999
1477478943.472:  -1110  65   8  999
1477478943.472:  -1111  65   8  999
1477478943.473:  -1099  65   8  999
1477478943.473:  -1068  65   8  999
1477478943.473:  -1032  65   8  999
1477478943.473:  -1004  65   8  999
1477478943.474:   -989  65   8  999
1477478943.479:   -974  65   8  999
1477478943.505:   -947  65   8  999
1477478943.505:   -911  65   8  999
1477478943.505:   -882  65   8  999
1477478943.505:   -875  65   8  999
1477478943.506:   -885  65   8  999
1477478943.506:   -897  65   8  999
1477478943.506:   -898  65   8  999
1477478943.506:   -885  65   8  999
1477478943.507:   -865  65   8  999
1477478943.507:   -843  65   8  999
1477478943.507:   -818  65   8  999
1477478943.507:   -786  65   8  999
1477478943.508:   -748  65   8  999
1477478943.508:   -716  65   8  999
1477478943.508:   -700  65   8  999
1477478943.510:   -698  65   8  999
1477478943.511:   -694  65   8  999
1477478943.514:   -679  65   8  999
1477478943.514:   -658  65   8  999
1477478943.515:   -650  65   8  999
1477478943.523:   -661  65   8  999
1477478943.523:   -671  65   8  999
1477478943.535:   -652  65   8  999
1477478943.535:   -598  65   8  999
1477478943.535:   -534  65   8  999
1477478943.535:   -490  65   8  999
1477478943.535:   -467  65   8  999
1477478943.535:   -441  65   8  999
1477478943.535:   -389  65   8  999
1477478943.538:   -320  65   8  999
1477478943.538:   -259  65   8  999
1477478943.539:   -221  65   8  999
1477478943.540:   -193  65   8  999
1477478943.543:   -156  65   8  999
1477478943.546:   -104  65   8  999
1477478943.547:    -43  65   8  999
1477478943.557:     15  65   8  999
1477478943.557:     63  65   8  999
1477478943.557:    101  65   8  999
1477478943.557:    136  65   8  999
1477478943.557:    173  65   8  999
1477478943.559:    217  65   8  999
1477478943.560:    261  65   8  999
1477478943.565:    289  65   8  999
1477478943.565:    295  65   8  999
1477478943.567:    286  65   8  999
1477478943.587:    284  65   8  999
1477478943.587:    297  65   8  999
1477478943.587:    322  65   8  999
1477478943.587:    357  65   8  999
1477478943.588:    402  65   8  999
1477478943.588:    461  65   8  999
1477478943.588:    531  65   8  999
1477478943.589:    605  65   8  999
1477478943.589:    683  65   8  999
1477478943.589:    770  65   8  999
1477478943.592:    856  65   8  999
1477478943.593:    919  65   8  999
1477478943.593:    945  65   8  999
1477478943.594:    951  65   8  999
1477478943.595:    972  65   8  999
1477478943.598:   1021  65   8  999
1477478943.610:   1080  65   8  999
1477478943.610:   1114  65   8  999
1477478943.610:   1115  65   8  999
1477478943.610:   1107  65   8  999
1477478943.610:   1118  65   8  999
1477478943.611:   1153  65   8  999
1477478943.612:   1194  65   8  999
1477478943.617:   1225  65   8  999
1477478943.618:   1242  65   8  999
1477478943.620:   1250  65   8  999
1477478943.620:   1253  65   8  999
1477478943.623:   1254  65   8  999
1477478943.645:   1257  65   8  999
1477478943.645:   1263  65   8  999
1477478943.646:   1268  65   8  999
1477478943.646:   1266  65   8  999
1477478943.646:   1253  65   8  999
1477478943.646:   1233  65   8  999
1477478943.646:   1212  65   8  999
1477478943.646:   1194  65   8  999
1477478943.647:   1187  65   8  999
1477478943.647:   1191  65   8  999
1477478943.647:   1191  65   8  999
1477478943.647:   1170  65   8  999
1477478943.648:   1130  65   8  999
1477478943.650:   1092  65   8  999
1477478943.652:   1074  65   8  999
1477478943.653:   1064  65   8  999
1477478943.656:   1034  65   8  999
1477478943.714:    970  65   8  999
1477478943.715:    897  65   8  999
1477478943.715:    843  65   8  999
1477478943.715:    804  65   8  999
1477478943.715:    748  65   8  999
1477478943.715:    657  65   8  999
1477478943.715:    555  65   8  999
1477478943.715:    479  65   8  999
1477478943.716:    432  65   8  999
1477478943.716:    388  65   8  999
1477478943.716:    324  65   8  999
1477478943.716:    247  65   8  999
1477478943.716:    184  65   8  999
1477478943.716:    138  65   8  999
1477478943.717:     90  65   8  999
1477478943.717:     24  65   8  999
1477478943.717:    -49  65   8  999
1477478943.717:   -108  65   8  999
1477478943.717:   -146  65   8  999
1477478943.717:   -180  65   8  999
1477478943.718:   -233  65   8  999
1477478943.718:   -303  65   8  999
1477478943.718:   -368  65   8  999
1477478943.718:   -409  65   8  999
1477478943.718:   -434  65   8  999
1477478943.718:   -468  65   8  999
1477478943.718:   -526  65   8  999
1477478943.719:   -592  65   8  999
1477478943.719:   -640  65   8  999
1477478943.719:   -659  65   8  999
1477478943.719:   -666  65   8  999
1477478943.719:   -684  65   8  999
1477478943.721:   -711  65   8  999
1477478943.724:   -727  65   8  999
1477478943.724:   -720  65   8  999
1477478943.733:   -700  65   8  999
1477478943.733:   -684  65   8  999
1477478943.748:   -677  65   8  999
1477478943.748:   -667  65   8  999
1477478943.749:   -647  65   8  999
1477478943.749:   -628  65   8  999
1477478943.749:   -621  65   8  999
1477478943.749:   -626  65   8  999
1477478943.749:   -636  65   8  999
1477478943.750:   -650  65   8  999
1477478943.750:   -671  65   8  999
1477478943.750:   -694  65   8  999
1477478943.750:   -712  65   8  999
1477478943.751:   -723  65   8  999
1477478943.753:   -733  65   8  999
1477478943.763:   -743  65   8  999
1477478943.777:   -743  65   8  999
1477478943.777:   -719  65   8  999
1477478943.778:   -679  65   8  999
1477478943.778:   -644  65   8  999
1477478943.778:   -633  65   8  999
1477478943.778:   -633  65   8  999
1477478943.778:   -615  65   8  999
1477478943.778:   -563  65   8  999
1477478943.779:   -495  65   8  999
1477478943.779:   -446  65   8  999
1477478943.779:   -434  65   8  999
1477478943.779:   -444  65   8  999
1477478943.785:   -446  65   8  999
1477478943.785:   -420  65   8  999
1477478943.785:   -382  65   8  999
1477478943.787:   -356  65   8  999
1477478943.813:   -353  65   8  999
1477478943.814:   -365  65   8  999
1477478943.823:   -373  65   8  999
1477478943.823:   -367  65   8  999
1477478943.823:   -349  65   8  999
1477478943.824:   -325  65   8  999
1477478943.824:   -299  65   8  999
1477478943.824:   -274  65   8  999
1477478943.824:   -260  65   8  999
1477478943.824:   -260  65   8  999
1477478943.824:   -264  65   8  999
1477478943.824:   -266  65   8  999
1477478943.824:   -267  65   8  999
1477478943.825:   -278  65   8  999
1477478943.825:   -304  65   8  999
1477478943.825:   -336  65   8  999
1477478943.825:   -359  65   8  999
1477478943.825:   -372  65   8  999
1477478943.825:   -388  65   8  999
1477478943.827:   -412  65   8  999
1477478943.832:   -429  65   8  999
1477478943.832:   -423  65   8  999
1477478943.833:   -395  65   8  999
1477478943.835:   -361  65   8  999
1477478943.846:   -331  65   8  999
1477478943.846:   -299  65   8  999
1477478943.846:   -258  65   8  999
1477478943.847:   -219  65   8  999
1477478943.848:   -203  65   8  999
1477478943.851:   -216  65   8  999
1477478943.851:   -237  65   8  999
1477478943.851:   -244  65   8  999
1477478943.852:   -239  65   8  999
1477478943.853:   -252  65   8  999
1477478943.857:   -294  65   8  999
1477478943.857:   -337  65   8  999
1477478943.864:   -343  65   8  999
1477478943.864:   -302  65   8  999
1477478943.866:   -252  65   8  999
1477478943.866:   -235  65   8  999
1477478943.868:   -253  65   8  999
1477478943.872:   -270  65   8  999
1477478943.881:   -256  65   8  999
1477478943.882:   -217  65   8  999
1477478943.882:   -185  65   8  999
1477478943.882:   -178  65   8  999
1477478943.883:   -186  65   8  999
1477478943.883:   -186  65   8  999
1477478943.887:   -178  65   8  999
1477478943.888:   -180  65   8  999
1477478943.889:   -204  65   8  999
1477478943.892:   -241  65   8  999
1477478943.899:   -271  65   8  999
1477478943.899:   -285  65   8  999
1477478943.899:   -291  65   8  999
1477478943.900:   -306  65   8  999
1477478943.901:   -329  65   8  999
1477478943.902:   -343  65   8  999
1477478943.903:   -335  65   8  999
1477478943.904:   -304  65   8  999
1477478943.908:   -269  65   8  999
1477478943.908:   -250  65   8  999
1477478943.921:   -251  65   8  999
1477478943.921:   -261  65   8  999
1477478943.921:   -264  65   8  999
1477478943.921:   -252  65   8  999
1477478943.921:   -235  65   8  999
1477478943.922:   -226  65   8  999
1477478943.926:   -232  65   8  999
1477478943.929:   -241  65   8  999
1477478943.929:   -237  65   8  999
1477478943.929:   -212  65   8  999
1477478943.931:   -179  65   8  999
1477478943.932:   -155  65   8  999
1477478943.946:   -147  65   8  999
1477478943.946:   -145  65   8  999
1477478943.947:   -134  65   8  999
1477478943.947:   -114  65   8  999
1477478943.947:    -98  65   8  999
1477478943.947:   -105  65   8  999
1477478943.949:   -132  65   8  999
1477478943.949:   -160  65   8  999
1477478943.951:   -171  65   8  999
1477478943.952:   -162  65   8  999
1477478943.954:   -144  65   8  999
1477478943.956:   -125  65   8  999
1477478943.958:   -112  65   8  999
1477478943.959:   -112  65   8  999
1477478943.969:   -131  65   8  999
1477478943.969:   -164  65   8  999
1477478943.974:   -194  65   8  999
1477478943.974:   -200  65   8  999
1477478943.975:   -184  65   8  999
1477478943.978:   -174  65   8  999
1477478943.979:   -195  65   8  999
1477478943.986:   -237  65   8  999
1477478943.998:   -255  65   8  999
1477478943.998:   -219  65   8  999
1477478943.999:   -143  65   8  999
1477478943.999:    -84  65   8  999
1477478943.999:    -83  65   8  999
1477478943.999:   -127  65   8  999
1477478943.999:   -170  65   8  999
1477478943.999:   -179  65   8  999
1477478944.000:   -171  65   8  999
1477478944.000:   -180  65   8  999
1477478944.000:   -224  65   8  999
1477478944.000:   -282  65   8  999
1477478944.001:   -322  65   8  999
1477478944.003:   -339  65   8  999
1477478944.005:   -354  65   8  999
1477478944.009:   -381  65   8  999
1477478944.021:   -406  65   8  999
1477478944.022:   -402  65   8  999
1477478944.022:   -361  65   8  999
1477478944.022:   -308  65   8  999
1477478944.024:   -278  65   8  999
1477478944.024:   -279  65   8  999
1477478944.024:   -287  65   8  999
1477478944.024:   -274  65   8  999
1477478944.027:   -239  65   8  999
1477478944.028:   -204  65   8  999
1477478944.030:   -191  65   8  999
1477478944.031:   -198  65   8  999
1477478944.041:   -212  65   8  999
1477478944.041:   -216  65   8  999
1477478944.041:   -202  65   8  999
1477478944.042:   -174  65   8  999
1477478944.042:   -142  65   8  999
1477478944.043:   -123  65   8  999
1477478944.046:   -132  65   8  999
1477478944.047:   -167  65   8  999
1477478944.050:   -212  65   8  999
1477478944.052:   -249  65   8  999
1477478944.053:   -271  65   8  999
1477478944.056:   -281  65   8  999
1477478944.066:   -284  65   8  999
1477478944.066:   -286  65   8  999
1477478944.067:   -294  65   8  999
1477478944.067:   -303  65   8  999
1477478944.067:   -299  65   8  999
1477478944.069:   -266  65   8  999
1477478944.070:   -213  65   8  999
1477478944.070:   -174  65   8  999
1477478944.073:   -175  65   8  999
1477478944.075:   -210  65   8  999
1477478944.075:   -242  65   8  999
1477478944.077:   -242  65   8  999
1477478944.085:   -218  65   8  999
1477478944.086:   -199  65   8  999
1477478944.088:   -204  65   8  999
1477478944.089:   -225  65   8  999
1477478944.090:   -242  65   8  999
1477478944.093:   -242  65   8  999
1477478944.094:   -227  65   8  999
1477478944.129:   -209  65   8  999
1477478944.129:   -204  65   8  999
1477478944.129:   -216  65   8  999
1477478944.130:   -236  65   8  999
1477478944.130:   -249  65   8  999
1477478944.130:   -253  65   8  999
1477478944.131:   -257  65   8  999
1477478944.142:   -269  65   8  999
1477478944.142:   -280  65   8  999
1477478944.142:   -278  65   8  999
1477478944.142:   -264  65   8  999
1477478944.143:   -247  65   8  999
1477478944.143:   -235  65   8  999
1477478944.144:   -223  65   8  999
1477478944.144:   -200  65   8  999
1477478944.144:   -165  65   8  999
1477478944.144:   -125  65   8  999
1477478944.144:    -85  65   8  999
1477478944.144:    -44  65   8  999
1477478944.144:    -11  65   8  999
1477478944.145:     -1  65   8  999
1477478944.145:    -13  65   8  999
1477478944.145:    -21  65   8  999
1477478944.145:      0  65   8  999
1477478944.145:     44  65   8  999
1477478944.147:     76  65   8  999
1477478944.147:     73  65   8  999
1477478944.147:     49  65   8  999
1477478944.148:     37  65   8  999
1477478944.151:     55  65   8  999
1477478944.156:     90  65   8  999
1477478944.159:    114  65   8  999
1477478944.160:    116  65   8  999
1477478944.160:     99  65   8  999
1477478944.160:     80  65   8  999
1477478944.167:     65  65   8  999
1477478944.167:     53  65   8  999
1477478944.168:     39  65   8  999
1477478944.171:     18  65   8  999
1477478944.172:    -13  65   8  999
1477478944.173:    -49  65   8  999
1477478944.193:    -85  65   8  999
1477478944.193:   -120  65   8  999
1477478944.193:   -152  65   8  999
1477478944.193:   -176  65   8  999
1477478944.194:   -189  65   8  999
1477478944.194:   -195  65   8  999
1477478944.194:   -201  65   8  999
1477478944.194:   -206  65   8  999
1477478944.194:   -202  65   8  999
1477478944.194:   -185  65   8  999
1477478944.198:   -166  65   8  999
1477478944.198:   -160  65   8  999
1477478944.198:   -165  65   8  999
1477478944.200:   -165  65   8  999
1477478944.201:   -151  65   8  999
1477478944.203:   -135  65   8  999
1477478944.206:   -137  65   8  999
1477478944.211:   -156  65   8  999
1477478944.225:   -168  65   8  999
1477478944.225:   -153  65   8  999
1477478944.226:   -118  65   8  999
1477478944.226:    -85  65   8  999
1477478944.226:    -65  65   8  999
1477478944.226:    -47  65   8  999
1477478944.227:    -15  65   8  999
1477478944.227:     22  65   8  999
1477478944.227:     44  65   8  999
1477478944.227:     44  65   8  999
1477478944.228:     42  65   8  999
1477478944.231:     54  65   8  999
1477478944.233:     70  65   8  999
1477478944.237:     48  65   8  999
1477478944.258:    -43  65   8  999
1477478944.258:   -182  65   8  999
1477478944.258:   -309  65   8  999
1477478944.259:   -388  65   8  999
1477478944.259:   -435  65   8  999
1477478944.259:   -479  65   8  999
1477478944.259:   -504  65   8  999
1477478944.259:   -453  65   8  999
1477478944.260:   -278  65   8  999
1477478944.260:     12  65   8  999
1477478944.260:    400  65   8  999
1477478944.260:    919  65   8  999
1477478944.260:   1628  65   8  999
1477478944.264:   2518  65   8  999
1477478944.264:   3479  65   8  999
1477478944.266:   4383  65   8  999
1477478944.270:   5203  65   8  999
1477478944.271:   5982  65   8  999
1477478944.282:   6721  65   8  999
1477478944.283:   7308  65   8  999
1477478944.283:   7599  65   8  999
1477478944.283:   7540  65   8  999
1477478944.283:   7173  65   8  999
1477478944.283:   6547  65   8 1007
1477478944.284:   5657  65   8 1007
1477478944.285:   4503  65   8 1007
1477478944.288:   3162  65   8 1007
1477478944.293:   1777  65   8 1007
1477478944.293:    490  65   8 1007
1477478944.295:   -605  65   8 1007
1477478944.295:  -1454  65   8 1007
1477478944.298:  -2034  65   8 1007
1477478944.302:  -2355  65   8 1007
1477478944.302:  -2461  65   8 1007
1477478944.314:  -2391  65   8 1007
1477478944.314:  -2159  65   8 1007
1477478944.314:  -1798  65   8 1007
1477478944.314:  -1397  65   8 1007
1477478944.314:  -1080  65   8 1007
1477478944.315:   -906  65   8 1007
1477478944.315:   -831  65   8 1007
1477478944.320:   -775  65   8 1007
1477478944.320:   -704  65   8 1007
1477478944.322:   -644  65   8 1007
1477478944.323:   -628  65   8 1007
1477478944.324:   -651  65   8 1007
1477478944.342:   -680  65   8 1007
1477478944.342:   -690  65   8 1007
1477478944.342:   -676  65   8 1007
1477478944.342:   -638  65   8 1007
1477478944.342:   -574  65   8 1007
1477478944.342:   -498  65   8 1007
1477478944.343:   -438  65   8 1007
1477478944.343:   -415  65   8 1007
1477478944.343:   -424  65   8 1007
1477478944.345:   -443  65   8 1007
1477478944.347:   -453  65   8 1007
1477478944.350:   -441  65   8 1007
1477478944.352:   -404  65   8 1007
1477478944.353:   -348  65   8 1007
1477478944.354:   -291  65   8 1007
1477478944.357:   -255  65   8 1007
1477478944.367:   -248  65   8 1007
1477478944.367:   -251  65   8 1007
1477478944.368:   -244  65   8 1007
1477478944.368:   -221  65   8 1007
1477478944.368:   -197  65   8 1007
1477478944.368:   -181  65   8 1007
1477478944.374:   -163  65   8 1007
1477478944.375:   -128  65   8 1007
1477478944.375:    -81  65   8 1007
1477478944.377:    -45  65   8 1007
1477478944.378:    -39  65   8 1007
1477478944.383:    -51  65   8 1007
1477478944.398:    -55  65   8 1007
1477478944.398:    -37  65   8 1007
1477478944.398:     -9  65   8 1007
1477478944.398:     13  65   8 1007
1477478944.399:     29  65   8 1007
1477478944.399:     49  65   8 1007
1477478944.399:     78  65   8 1007
1477478944.399:    103  65   8 1007
1477478944.401:    110  65   8 1007
1477478944.404:    103  65   8 1007
1477478944.405:    101  65   8 1007
1477478944.405:    118  65   8 1007
1477478944.417:    144  65   8 1007
1477478944.417:    162  65   8 1007
1477478944.443:    160  65   8 1007
1477478944.443:    150  65   8 1007
1477478944.443:    148  65   8 1007
1477478944.443:    160  65   8 1007
1477478944.444:    174  65   8 1007
1477478944.444:    177  65   8 1007
1477478944.444:    171  65   8 1007
1477478944.444:    168  65   8 1007
1477478944.444:    172  65   8 1007
1477478944.444:    181  65   8 1007
1477478944.445:    188  65   8 1007
1477478944.445:    197  65   8 1007
1477478944.445:    216  65   8 1007
1477478944.445:    249  65   8 1007
1477478944.445:    284  65   8 1007
1477478944.445:    310  65   8 1007
1477478944.445:    330  65   8 1007
1477478944.446:    356  65   8 1007
1477478944.446:    395  65   8 1007
1477478944.448:    441  65   8 1007
1477478944.454:    488  65   8 1007
1477478944.455:    535  65   8 1007
1477478944.455:    585  65   8 1007
1477478944.458:    637  65   8 1007
1477478944.458:    682  65   8 1007
1477478944.459:    711  65   8 1007
1477478944.462:    731  65   8 1007
1477478944.463:    755  65   8 1007
1477478944.475:    782  65   8 1007
1477478944.475:    803  65   8 1007
1477478944.475:    808  65   8 1007
1477478944.476:    802  65   8 1007
1477478944.476:    808  65   8 1007
1477478944.476:    841  65   8 1007
1477478944.476:    894  65   8 1007
1477478944.479:    941  65   8 1007
1477478944.481:    971  65   8 1007
1477478944.485:    991  65   8 1007
1477478944.495:   1022  65   8 1007
1477478944.495:   1068  65   8 1007
1477478944.496:   1119  65   8 1007
1477478944.496:   1157  65   8 1007
1477478944.496:   1185  65   8 1007
1477478944.496:   1215  65   8 1007
1477478944.499:   1258  65   8 1007
1477478944.499:   1310  65   8 1007
1477478944.501:   1361  65   8 1007
1477478944.502:   1409  65   8 1007
1477478944.503:   1459  65   8 1007
1477478944.506:   1507  65   8 1007
1477478944.508:   1542  65   8 1007
1477478944.514:   1559  65   8 1007
1477478944.515:   1569  65   8 1007
1477478944.516:   1593  65   8 1007
1477478944.516:   1634  65   8 1007
1477478944.517:   1677  65   8 1007
1477478944.519:   1707  65   8 1007
1477478944.522:   1733  65   8 1007
1477478944.526:   1773  65   8 1007
1477478944.526:   1829  65   8 1007
1477478944.534:   1880  65   8 1007
1477478944.534:   1904  65   8 1007
1477478944.535:   1908  65   8 1007
1477478944.536:   1916  65   8 1007
1477478944.537:   1938  65   8 1007
1477478944.540:   1957  65   8 1007
1477478944.540:   1953  65   8 1007
1477478944.542:   1931  65   8 1007
1477478944.543:   1914  65   8 1007
1477478944.544:   1915  65   8 1007
1477478944.556:   1925  65   8 1007
1477478944.556:   1930  65   8 1007
1477478944.559:   1929  65   8 1007
1477478944.559:   1932  65   8 1007
1477478944.559:   1942  65   8 1007
1477478944.560:   1947  65   8 1007
1477478944.560:   1938  65   8 1007
1477478944.560:   1919  65   8 1007
1477478944.564:   1896  65   8 1007
1477478944.568:   1863  65   8 1007
1477478944.569:   1808  65   8 1007
1477478944.569:   1730  65   8 1007
1477478944.570:   1644  65   8 1007
1477478944.572:   1564  65   8 1007
1477478944.584:   1491  65   8 1007
1477478944.643:   1418  65   8 1007
1477478944.653:   1343  65   8 1007
1477478944.653:   1273  65   8 1007
1477478944.653:   1209  65   8 1007
1477478944.654:   1148  65   8 1007
1477478944.654:   1080  65   8 1007
1477478944.654:   1012  65   8 1007
1477478944.654:    947  65   8 1007
1477478944.654:    886  65   8 1007
1477478944.654:    826  65   8 1007
1477478944.654:    770  65   8 1007
1477478944.655:    720  65   8 1007
1477478944.655:    678  65   8 1007
1477478944.655:    632  65   8 1007
1477478944.655:    571  65   8 1007
1477478944.655:    499  65   8 1007
1477478944.656:    431  65   8 1007
1477478944.656:    373  65   8 1007
1477478944.656:    321  65   8 1007
1477478944.656:    266  65   8 1007
1477478944.657:    209  65   8 1007
1477478944.657:    159  65   8 1007
1477478944.657:    120  65   8 1007
1477478944.658:     86  65   8 1007
1477478944.658:     57  65   8 1007
1477478944.658:     37  65   8 1007
1477478944.658:     28  65   8 1007
1477478944.658:     19  65   8 1007
1477478944.659:     -5  65   8 1007
1477478944.659:    -47  65   8 1007
1477478944.659:    -90  65   8 1007
1477478944.661:   -113  65   8 1007
1477478944.662:   -119  65   8 1007
1477478944.662:   -122  65   8 1007
1477478944.662:   -138  65   8 1007
1477478944.662:   -164  65   8 1007
1477478944.662:   -182  65   8 1007
1477478944.662:   -184  65   8 1007
1477478944.663:   -171  65   8 1007
1477478944.663:   -152  65   8 1007
1477478944.664:   -133  65   8 1007
1477478944.665:   -112  65   8 1007
1477478944.666:    -90  65   8 1007
1477478944.666:    -69  65   8 1007
1477478944.666:    -56  65   8 1007
1477478944.667:    -53  65   8 1007
1477478944.669:    -56  65   8 1007
1477478944.669:    -52  65   8 1007
1477478944.676:    -34  65   8 1007
1477478944.698:    -10  65   8 1007
1477478944.698:      9  65   8 1007
1477478944.698:     18  65   8 1007
1477478944.699:     26  65   8 1007
1477478944.699:     50  65   8 1007
1477478944.699:     87  65   8 1007
1477478944.699:    115  65   8 1007
1477478944.700:    119  65   8 1007
1477478944.700:    112  65   8 1007
1477478944.700:    119  65   8 1007
1477478944.700:    144  65   8 1007
1477478944.700:    170  65   8 1007
1477478944.700:    175  65   8 1007
1477478944.701:    169  65   8 1007
1477478944.701:    181  65   8 1007
1477478944.705:    223  65   8 1007
1477478944.705:    272  65   8 1007
1477478944.707:    300  65   8 1007
1477478944.708:    308  65   8 1007
1477478944.710:    320  65   8 1007
1477478944.722:    355  65   8 1007
1477478944.722:    400  65   8 1007
1477478944.722:    435  65   8 1007
1477478944.722:    450  65   8 1007
1477478944.722:    461  65   8 1007
1477478944.722:    476  65   8 1007
1477478944.723:    493  65   8 1007
1477478944.725:    497  65   8 1007
1477478944.728:    488  65   8 1007
1477478944.729:    477  65   8 1007
1477478944.732:    474  65   8 1007
1477478944.733:    473  65   8 1007
1477478944.737:    465  65   8 1007
1477478944.737:    443  65   8 1007
1477478944.739:    416  65   8 1007
1477478944.744:    397  65   8 1007
1477478944.744:    386  65   8 1007
1477478944.746:    375  65   8 1007
1477478944.747:    358  65   8 1007
1477478944.751:    337  65   8 1007
1477478944.762:    321  65   8 1007
1477478944.762:    314  65   8 1007
1477478944.762:    310  65   8 1007
1477478944.762:    303  65   8 1007
1477478944.762:    286  65   8 1007
1477478944.762:    263  65   8 1007
1477478944.765:    237  65   8 1007
1477478944.765:    212  65   8 1007
1477478944.768:    190  65   8 1007
1477478944.769:    170  65   8 1007
1477478944.771:    152  65   8 1007
1477478944.773:    142  65   8 1007
1477478944.779:    147  65   8 1007
1477478944.779:    171  65   8 1007
1477478944.779:    207  65   8 1007
1477478944.782:    240  65   8 1007
1477478944.784:    257  65   8 1007
1477478944.784:    259  65   8 1007
1477478944.802:    258  65   8 1007
1477478944.802:    260  65   8 1007
1477478944.802:    257  65   8 1007
1477478944.802:    241  65   8 1007
1477478944.802:    215  65   8 1007
1477478944.802:    196  65   8 1007
1477478944.803:    195  65   8 1007
1477478944.803:    208  65   8 1007
1477478944.803:    223  65   8 1007
1477478944.806:    235  65   8 1007
1477478944.807:    245  65   8 1007
1477478944.808:    261  65   8 1007
1477478944.811:    279  65   8 1007
1477478944.812:    292  65   8 1007
1477478944.824:    297  65   8 1007
1477478944.824:    296  65   8 1007
1477478944.824:    292  65   8 1007
1477478944.824:    289  65   8 1007
1477478944.824:    287  65   8 1007
1477478944.825:    282  65   8 1007
1477478944.826:    271  65   8 1007
1477478944.828:    256  65   8 1007
1477478944.830:    243  65   8 1007
1477478944.834:    243  65   8 1007
1477478944.842:    256  65   8 1007
1477478944.843:    270  65   8 1007
1477478944.843:    270  65   8 1007
1477478944.843:    257  65   8 1007
1477478944.843:    243  65   8 1007
1477478944.844:    245  65   8 1007
1477478944.848:    258  65   8 1007
1477478944.848:    271  65   8 1007
1477478944.849:    271  65   8 1007
1477478944.850:    264  65   8 1007
1477478944.853:    263  65   8 1007
1477478944.855:    275  65   8 1007
1477478944.866:    288  65   8 1007
1477478944.866:    293  65   8 1007
1477478944.867:    287  65   8 1007
1477478944.867:    278  65   8 1007
1477478944.867:    269  65   8 1007
1477478944.867:    259  65   8 1007
1477478944.869:    243  65   8 1007
1477478944.871:    224  65   8 1007
1477478944.875:    218  65   8 1007
1477478944.875:    233  65   8 1007
1477478944.877:    262  65   8 1007
1477478944.878:    289  65   8 1007
1477478944.880:    307  65   8 1007
1477478944.883:    323  65   8 1007
1477478944.890:    344  65   8 1007
1477478944.890:    370  65   8 1007
1477478944.890:    393  65   8 1007
1477478944.891:    406  65   8 1007
1477478944.892:    413  65   8 1007
1477478944.894:    420  65   8 1007
1477478944.897:    428  65   8 1007
1477478944.898:    435  65   8 1007
1477478944.902:    441  65   8 1007
1477478944.903:    448  65   8 1007
1477478944.920:    453  65   8 1007
1477478944.921:    450  65   8 1007
1477478944.921:    440  65   8 1007
1477478944.921:    430  65   8 1007
1477478944.921:    427  65   8 1007
1477478944.921:    433  65   8 1007
1477478944.921:    444  65   8 1007
1477478944.921:    458  65   8 1007
1477478944.922:    483  65   8 1007
1477478944.922:    517  65   8 1007
1477478944.926:    547  65   8 1007
1477478944.926:    559  65   8 1007
1477478944.931:    557  65   8 1007
1477478944.931:    553  65   8 1007
1477478944.932:    554  65   8 1007
1477478944.933:    556  65   8 1007
1477478944.936:    547  65   8 1007
1477478944.938:    527  65   8 1007
1477478944.948:    513  65   8 1007
1477478944.948:    515  65   8 1007
1477478944.948:    532  65   8 1007
1477478944.948:    547  65   8 1007
1477478944.951:    552  65   8 1007
1477478944.951:    550  65   8 1007
1477478944.952:    555  65   8 1007
1477478944.953:    574  65   8 1007
1477478944.955:    602  65   8 1007
1477478944.957:    624  65   8 1007
1477478944.961:    632  65   8 1007
1477478944.961:    629  65   8 1007
1477478944.963:    631  65   8 1007
1477478944.966:    643  65   8 1007
1477478944.976:    657  65   8 1007
1477478944.976:    663  65   8 1007
1477478944.976:    659  65   8 1007
1477478944.976:    659  65   8 1007
1477478944.976:    674  65   8 1007
1477478944.977:    700  65   8 1007
1477478944.980:    721  65   8 1007
1477478944.981:    731  65   8 1007
1477478944.985:    736  65   8 1007
1477478944.985:    744  65   8 1007
1477478944.987:    749  65   8 1007
1477478944.990:    739  65   8 1007
1477478945.018:    710  65   8 1007
1477478945.018:    677  65   8 1007
1477478945.018:    655  65   8 1007
1477478945.019:    645  65   8 1007
1477478945.019:    628  65   8 1007
1477478945.019:    597  65   8 1007
1477478945.019:    558  65   8 1007
1477478945.019:    529  65   8 1007
1477478945.019:    517  65   8 1007
1477478945.019:    514  65   8 1007
1477478945.020:    506  65   8 1007
1477478945.020:    497  65   8 1007
1477478945.020:    501  65   8 1007
1477478945.020:    524  65   8 1007
1477478945.025:    556  65   8 1007
1477478945.029:    582  65   8 1007
1477478945.029:    597  65   8 1007
1477478945.029:    608  65   8 1007
1477478945.029:    624  65   8 1007
1477478945.030:    645  65   8 1007
1477478945.030:    661  65   8 1007
1477478945.032:    670  65   8 1007
1477478945.045:    682  65   8 1007
1477478945.045:    704  65   8 1007
1477478945.045:    735  65   8 1007
1477478945.045:    766  65   8 1007
1477478945.046:    786  65   8 1007
1477478945.046:    790  65   8 1007
1477478945.053:    779  65   8 1007
1477478945.053:    767  65   8 1007
1477478945.065:    763  65   8 1007
1477478945.065:    766  65   8 1007
1477478945.065:    756  65   8 1007
1477478945.066:    718  65   8 1007
1477478945.066:    655  65   8 1007
1477478945.066:    596  65   8 1007
1477478945.066:    563  65   8 1007
1477478945.067:    553  65   8 1007
1477478945.067:    541  65   8 1007
1477478945.067:    519  65   8 1007
1477478945.093:    496  65   8 1007
1477478945.094:    492  65   8 1007
1477478945.101:    515  65   8 1007
1477478945.101:    562  65   8 1007
1477478945.101:    631  65   8 1007
1477478945.101:    713  65   8 1007
1477478945.102:    791  65   8 1007
1477478945.102:    841  65   8 1007
1477478945.102:    860  65   8 1007
1477478945.102:    876  65   8 1007
1477478945.102:    918  65   8 1007
1477478945.102:    980  65   8 1007
1477478945.103:   1030  65   8 1007
1477478945.103:   1041  65   8 1007
1477478945.103:   1024  65   8 1007
1477478945.112:   1010  65   8 1007
1477478945.126:   1017  65   8 1007
1477478945.127:   1029  65   8 1007
1477478945.128:   1027  65   8 1007
1477478945.128:   1006  65   8 1007
1477478945.129:    980  65   8 1007
1477478945.129:    956  65   8 1007
1477478945.129:    931  65   8 1007
1477478945.129:    900  65   8 1007
1477478945.129:    865  65   8 1007
1477478945.129:    835  65   8 1007
1477478945.130:    813  65   8 1007
1477478945.131:    793  65   8 1007
1477478945.131:    769  65   8 1007
1477478945.131:    736  65   8 1007
1477478945.131:    698  65   8 1007
1477478945.131:    664  65   8 1007
1477478945.132:    644  65   8 1007
1477478945.134:    638  65   8 1007
1477478945.149:    635  65   8 1007
1477478945.149:    624  65   8 1007
1477478945.149:    608  65   8 1007
1477478945.149:    601  65   8 1007
1477478945.150:    610  65   8 1007
1477478945.150:    629  65   8 1007
1477478945.150:    647  65   8 1007
1477478945.150:    665  65   8 1007
1477478945.156:    688  65   8 1007
1477478945.156:    717  65   8 1007
1477478945.156:    739  65   8 1007
1477478945.157:    753  65   8 1007
1477478945.163:    766  65   8 1007
1477478945.163:    788  65   8 1007
1477478945.164:    810  65   8 1007
1477478945.165:    810  65   8 1007
1477478945.181:    783  65   8 1007
1477478945.181:    759  65   8 1007
1477478945.182:    765  65   8 1007
1477478945.182:    795  65   8 1007
1477478945.182:    815  65   8 1007
1477478945.182:    803  65   8 1007
1477478945.183:    781  65   8 1007
1477478945.183:    790  65   8 1007
1477478945.185:    837  65   8 1007
1477478945.186:    870  65   8 1007
1477478945.188:    821  65   8 1007
1477478945.189:    671  65   8 1007
1477478945.190:    477  65   8 1007
1477478945.195:    314  65   8 1007
1477478945.201:    201  65   8 1007
1477478945.201:    102  65   8 1007
1477478945.202:     -2  65   8  892
1477478945.204:    -58  65   8  892
1477478945.204:     -3  65   8  892
1477478945.205:    168  65   8  892
1477478945.207:    422  65   8  892
1477478945.209:    781  65   8  892
1477478945.220:   1350  65   8  892
1477478945.220:   2208  65   8  892
1477478945.221:   3270  65   8  892
1477478945.221:   4328  65   8  892
1477478945.221:   5253  65   8  892
1477478945.222:   6110  65   8  892
1477478945.223:   7039  65   8  892
1477478945.227:   8027  65   8  892
1477478945.239:   8853  65   8  892
1477478945.239:   9269  65   8  892
1477478945.239:   9200  65   8  892
1477478945.239:   8757  65   8  892
1477478945.240:   8082  65   8  892
1477478945.240:   7229  65   8  892
1477478945.240:   6180  65   8  892
1477478945.240:   4928  65   8  892
1477478945.245:   3523  65   8  892
1477478945.245:   2072  65   8  892
1477478945.247:    732  65   8  892
1477478945.248:   -338  65   8  892
1477478945.250:  -1051  65   8  892
1477478945.252:  -1438  65   8  892
1477478945.261:  -1610  65   8  892
1477478945.262:  -1651  65   8  892
1477478945.262:  -1563  65   8  892
1477478945.262:  -1322  65   8  892
1477478945.264:   -977  65   8  892
1477478945.264:   -648  65   8  892
1477478945.265:   -434  65   8  892
1477478945.267:   -340  65   8  892
1477478945.272:   -309  65   8  892
1477478945.273:   -296  65   8  892
1477478945.285:   -308  65   8  892
1477478945.285:   -362  65   8  892
1477478945.286:   -447  65   8  892
1477478945.286:   -531  65   8  892
1477478945.287:   -581  65   8  892
1477478945.287:   -589  65   8  892
1477478945.287:   -561  65   8  892
1477478945.287:   -512  65   8  892
1477478945.291:   -457  65   8  892
1477478945.291:   -416  65   8  892
1477478945.293:   -397  65   8  892
1477478945.296:   -389  65   8  892
1477478945.297:   -371  65   8  892
1477478945.299:   -337  65   8  892
1477478945.321:   -301  65   8  892
1477478945.321:   -280  65   8  892
1477478945.321:   -270  65   8  892
1477478945.321:   -250  65   8  892
1477478945.325:   -209  65   8  892
1477478945.325:   -162  65   8  892
1477478945.325:   -137  65   8  892
1477478945.325:   -141  65   8  892
1477478945.325:   -150  65   8  892
1477478945.326:   -138  65   8  892
1477478945.326:   -100  65   8  892
1477478945.326:    -56  65   8  892
1477478945.326:    -24  65   8  892
1477478945.327:     -5  65   8  892
1477478945.328:     11  65   8  892
1477478945.332:     34  65   8  892
1477478945.332:     63  65   8  892
1477478945.334:     92  65   8  892
1477478945.337:    117  65   8  892
1477478945.338:    135  65   8  892
1477478945.357:    147  65   8  892
1477478945.358:    156  65   8  892
1477478945.358:    166  65   8  892
1477478945.358:    175  65   8  892
1477478945.358:    180  65   8  892
1477478945.358:    182  65   8  892
1477478945.360:    183  65   8  892
1477478945.360:    188  65   8  892
1477478945.360:    190  65   8  892
1477478945.362:    183  65   8  892
1477478945.362:    169  65   8  892
1477478945.364:    163  65   8  892
1477478945.365:    177  65   8  892
1477478945.367:    206  65   8  892
1477478945.369:    228  65   8  892
1477478945.370:    229  65   8  892
1477478945.375:    219  65   8  892
1477478945.375:    227  65   8  892
1477478945.387:    272  65   8  892
1477478945.388:    342  65   8  892
1477478945.388:    406  65   8  892
1477478945.388:    442  65   8  892
1477478945.388:    456  65   8  892
1477478945.391:    469  65   8  892
1477478945.392:    492  65   8  892
1477478945.392:    516  65   8  892
1477478945.392:    528  65   8  892
1477478945.393:    523  65   8  892
1477478945.396:    515  65   8  892
1477478945.397:    513  65   8  892
1477478945.402:    517  65   8  892
1477478945.402:    523  65   8  892
1477478945.403:    527  65   8  892
1477478945.404:    533  65   8  892
1477478945.407:    546  65   8  892
1477478945.410:    565  65   8  892
1477478945.427:    584  65   8  892
1477478945.427:    604  65   8  892
1477478945.427:    630  65   8  892
1477478945.428:    666  65   8  892
1477478945.428:    710  65   8  892
1477478945.428:    746  65   8  892
1477478945.428:    763  65   8  892
1477478945.428:    764  65   8  892
1477478945.429:    771  65   8  892
1477478945.429:    800  65   8  892
1477478945.431:    844  65   8  892
1477478945.432:    876  65   8  892
1477478945.437:    885  65   8  892
1477478945.438:    887  65   8  892
1477478945.439:    913  65   8  892
1477478945.440:    969  65   8  892
1477478945.442:   1027  65   8  892
1477478945.446:   1056  65   8  892
1477478945.461:   1058  65   8  892
1477478945.462:   1065  65   8  892
1477478945.462:   1101  65   8  892
1477478945.462:   1158  65   8  892
1477478945.462:   1215  65   8  892
1477478945.462:   1265  65   8  892
1477478945.463:   1322  65   8  892
1477478945.463:   1399  65   8  892
1477478945.463:   1487  65   8  892
1477478945.465:   1566  65   8  892
1477478945.466:   1630  65   8  892
1477478945.470:   1692  65   8  892
1477478945.470:   1758  65   8  892
1477478945.472:   1819  65   8  892
1477478945.475:   1858  65   8  892
1477478945.478:   1875  65   8  892
1477478945.489:   1897  65   8  892
1477478945.489:   1943  65   8  892
1477478945.489:   2000  65   8  892
1477478945.489:   2035  65   8  892
1477478945.489:   2034  65   8  892
1477478945.489:   2021  65   8  892
1477478945.491:   2031  65   8  892
1477478945.492:   2067  65   8  892
1477478945.493:   2096  65   8  892
1477478945.500:   2090  65   8  892
1477478945.500:   2060  65   8  892
1477478945.500:   2041  65   8  892
1477478945.502:   2048  65   8  892
1477478945.580:   2061  65   8  892
1477478945.588:   2055  65   8  892
1477478945.588:   2036  65   8  892
1477478945.589:   2027  65   8  892
1477478945.589:   2033  65   8  892
1477478945.589:   2030  65   8  892
1477478945.589:   2000  65   8  892
1477478945.589:   1956  65   8  892
1477478945.589:   1924  65   8  892
1477478945.589:   1910  65   8  892
1477478945.590:   1892  65   8  892
1477478945.590:   1846  65   8  892
1477478945.590:   1778  65   8  892
1477478945.590:   1706  65   8  892
1477478945.590:   1640  65   8  892
1477478945.590:   1573  65   8  892
1477478945.591:   1502  65   8  892
1477478945.591:   1433  65   8  892
1477478945.591:   1371  65   8  892
1477478945.591:   1310  65   8  892
1477478945.591:   1233  65   8  892
1477478945.592:   1146  65   8  892
1477478945.592:   1070  65   8  892
1477478945.592:   1021  65   8  892
1477478945.592:    988  65   8  892
1477478945.592:    950  65   8  892
1477478945.592:    894  65   8  892
1477478945.592:    831  65   8  892
1477478945.593:    774  65   8  892
1477478945.593:    728  65   8  892
1477478945.593:    686  65   8  892
1477478945.593:    639  65   8  892
1477478945.593:    594  65   8  892
1477478945.593:    558  65   8  892
1477478945.593:    531  65   8  892
1477478945.594:    505  65   8  892
1477478945.594:    475  65   8  892
1477478945.594:    444  65   8  892
1477478945.594:    417  65   8  892
1477478945.594:    395  65   8  892
1477478945.594:    375  65   8  892
1477478945.594:    353  65   8  892
1477478945.595:    322  65   8  892
1477478945.595:    279  65   8  892
1477478945.595:    229  65   8  892
1477478945.595:    189  65   8  892
1477478945.595:    178  65   8  892
1477478945.596:    193  65   8  892
1477478945.599:    209  65   8  892
1477478945.604:    200  65   8  892
1477478945.604:    168  65   8  892
1477478945.604:    139  65   8  892
1477478945.610:    134  65   8  892
1477478945.626:    146  65   8  892
1477478945.626:    149  65   8  892
1477478945.626:    133  65   8  892
1477478945.626:    116  65   8  892
1477478945.626:    116  65   8  892
1477478945.626:    128  65   8  892
1477478945.627:    136  65   8  892
1477478945.627:    143  65   8  892
1477478945.627:    162  65   8  892
1477478945.627:    195  65   8  892
1477478945.631:    218  65   8  892
1477478945.631:    201  65   8  892
1477478945.634:    151  65   8  892
1477478945.635:    105  65   8  892
1477478945.635:     97  65   8  892
1477478945.640:    117  65   8  892
1477478945.652:    134  65   8  892
1477478945.652:    127  65   8  892
1477478945.652:    110  65   8  892
1477478945.652:    104  65   8  892
1477478945.653:    120  65   8  892
1477478945.653:    148  65   8  892
1477478945.653:    179  65   8  892
1477478945.654:    208  65   8  892
1477478945.657:    235  65   8  892
1477478945.658:    261  65   8  892
1477478945.660:    287  65   8  892
1477478945.661:    316  65   8  892
1477478945.662:    350  65   8  892
1477478945.668:    378  65   8  892
1477478945.668:    393  65   8  892
1477478945.670:    395  65   8  892
1477478945.672:    397  65   8  892
1477478945.674:    405  65   8  892
1477478945.686:    414  65   8  892
1477478945.687:    413  65   8  892
1477478945.687:    410  65   8  892
1477478945.687:    424  65   8  892
1477478945.687:    463  65   8  892
1477478945.687:    513  65   8  892
1477478945.687:    551  65   8  892
1477478945.688:    565  65   8  892
1477478945.691:    563  65   8  892
1477478945.700:    568  65   8  892
1477478945.700:    596  65   8  892
1477478945.701:    639  65   8  892
1477478945.701:    670  65   8  892
1477478945.701:    668  65   8  892
1477478945.705:    633  65   8  892
1477478945.705:    590  65   8  892
1477478945.723:    568  65   8  892
1477478945.724:    568  65   8  892
1477478945.724:    571  65   8  892
1477478945.724:    556  65   8  892
1477478945.724:    531  65   8  892
1477478945.724:    516  65   8  892
1477478945.724:    518  65   8  892
1477478945.724:    524  65   8  892
1477478945.725:    521  65   8  892
1477478945.726:    516  65   8  892
1477478945.727:    523  65   8  892
1477478945.728:    546  65   8  892
1477478945.730:    571  65   8  892
1477478945.732:    585  65   8  892
1477478945.733:    591  65   8  892
1477478945.735:    602  65   8  892
1477478945.741:    616  65   8  892
1477478945.741:    620  65   8  892
1477478945.763:    606  65   8  892
1477478945.763:    584  65   8  892
1477478945.763:    568  65   8  892
1477478945.763:    560  65   8  892
1477478945.763:    554  65   8  892
1477478945.763:    549  65   8  892
1477478945.764:    556  65   8  892
1477478945.764:    580  65   8  892
1477478945.764:    607  65   8  892
1477478945.764:    617  65   8  892
1477478945.764:    612  65   8  892
1477478945.764:    607  65   8  892
1477478945.767:    607  65   8  892
1477478945.768:    602  65   8  892
1477478945.769:    578  65   8  892
1477478945.772:    539  65   8  892
1477478945.772:    506  65   8  892
1477478945.776:    496  65   8  892
1477478945.786:    502  65   8  892
1477478945.786:    509  65   8  892
1477478945.786:    512  65   8  892
1477478945.786:    519  65   8  892
1477478945.786:    534  65   8  892
1477478945.787:    550  65   8  892
1477478945.788:    569  65   8  892
1477478945.791:    592  65   8  892
1477478945.795:    620  65   8  892
1477478945.795:    640  65   8  892
1477478945.798:    643  65   8  892
1477478945.799:    633  65   8  892
1477478945.799:    634  65   8  892
1477478945.802:    657  65   8  892
1477478945.804:    694  65   8  892
1477478945.809:    719  65   8  892
1477478945.809:    720  65   8  892
1477478945.811:    704  65   8  892
1477478945.830:    689  65   8  892
1477478945.830:    690  65   8  892
1477478945.830:    706  65   8  892
1477478945.830:    718  65   8  892
1477478945.830:    710  65   8  892
1477478945.831:    679  65   8  892
1477478945.831:    642  65   8  892
1477478945.831:    624  65   8  892
1477478945.831:    632  65   8  892
1477478945.831:    643  65   8  892
1477478945.832:    637  65   8  892
1477478945.837:    614  65   8  892
1477478945.837:    602  65   8  892
1477478945.838:    615  65   8  892
1477478945.840:    645  65   8  892
1477478945.841:    661  65   8  892
1477478945.843:    653  65   8  892
1477478945.846:    633  65   8  892
1477478945.859:    625  65   8  892
1477478945.859:    637  65   8  892
1477478945.859:    655  65   8  892
1477478945.859:    669  65   8  892
1477478945.859:    680  65   8  892
1477478945.860:    700  65   8  892
1477478945.861:    737  65   8  892
1477478945.864:    785  65   8  892
1477478945.864:    827  65   8  892
1477478945.868:    852  65   8  892
1477478945.871:    862  65   8  892
1477478945.871:    864  65   8  892
1477478945.883:    867  65   8  892
1477478945.883:    873  65   8  892
1477478945.883:    881  65   8  892
1477478945.884:    887  65   8  892
1477478945.884:    889  65   8  892
1477478945.884:    889  65   8  892
1477478945.884:    888  65   8  892
1477478945.887:    890  65   8  892
1477478945.888:    897  65   8  892
1477478945.891:    909  65   8  892
1477478945.891:    922  65   8  892
1477478945.893:    934  65   8  892
1477478945.894:    944  65   8  892
1477478945.896:    953  65   8  892
1477478945.899:    963  65   8  892
1477478945.901:    973  65   8  892
1477478945.905:    982  65   8  892
1477478945.905:    988  65   8  892
1477478945.907:    988  65   8  892
1477478945.908:    981  65   8  892
1477478945.919:    968  65   8  892
1477478945.919:    952  65   8  892
1477478945.920:    942  65   8  892
1477478945.920:    941  65   8  892
1477478945.920:    947  65   8  892
1477478945.921:    956  65   8  892
1477478945.922:    962  65   8  892
1477478945.923:    961  65   8  892
1477478945.926:    951  65   8  892
1477478945.928:    940  65   8  892
1477478945.941:    935  65   8  892
1477478945.941:    939  65   8  892
1477478945.941:    949  65   8  892
1477478945.941:    960  65   8  892
1477478945.941:    970  65   8  892
1477478945.941:    982  65   8  892
1477478945.942:    995  65   8  892
1477478945.946:   1005  65   8  892
1477478945.946:   1001  65   8  892
1477478945.948:    981  65   8  892
1477478945.949:    951  65   8  892
1477478945.950:    916  65   8  892
1477478945.953:    880  65   8  892
1477478945.956:    846  65   8  892
1477478945.960:    817  65   8  892
1477478945.960:    799  65   8  892
1477478945.979:    791  65   8  892
1477478945.979:    789  65   8  892
1477478945.979:    791  65   8  892
1477478945.980:    800  65   8  892
1477478945.980:    818  65   8  892
1477478945.981:    837  65   8  892
1477478945.981:    846  65   8  892
1477478945.981:    850  65   8  892
1477478945.982:    862  65   8  892
1477478945.982:    888  65   8  892
1477478945.982:    913  65   8  892
1477478945.983:    915  65   8  892
1477478945.987:    898  65   8  892
1477478945.988:    890  65   8  892
1477478945.999:    913  65   8  892
1477478946.000:    947  65   8  892
1477478946.000:    957  65   8  892
1477478946.000:    931  65   8  892
1477478946.000:    894  65   8  892
1477478946.001:    883  65   8  892
1477478946.001:    907  65   8  892
1477478946.003:    936  65   8  892
1477478946.004:    938  65   8  892
1477478946.005:    908  65   8  892
1477478946.008:    875  65   8  892
1477478946.011:    868  65   8  892
1477478946.015:    893  65   8  892
1477478946.015:    929  65   8  892
1477478946.016:    949  65   8  892
1477478946.020:    941  65   8  892
1477478946.020:    920  65   8  892
1477478946.022:    911  65   8  892
1477478946.024:    922  65   8  892
1477478946.029:    937  65   8  892
1477478946.045:    940  65   8  892
1477478946.046:    922  65   8  892
1477478946.046:    894  65   8  892
1477478946.046:    873  65   8  892
1477478946.046:    865  65   8  892
1477478946.046:    869  65   8  892
1477478946.046:    876  65   8  892
1477478946.047:    878  65   8  892
1477478946.047:    870  65   8  892
1477478946.047:    858  65   8  892
1477478946.048:    862  65   8  892
1477478946.049:    896  65   8  892
1477478946.052:    957  65   8  892
1477478946.056:   1017  65   8  892
1477478946.056:   1049  65   8  892
1477478946.058:   1052  65   8  892
1477478946.061:   1053  65   8  892
1477478946.061:   1075  65   8  892
1477478946.079:   1110  65   8  892
1477478946.079:   1128  65   8  892
1477478946.079:   1118  65   8  892
1477478946.079:   1101  65   8  892
1477478946.079:   1102  65   8  892
1477478946.079:   1120  65   8  892
1477478946.079:   1130  65   8  892
1477478946.080:   1119  65   8  892
1477478946.080:   1107  65   8  892
1477478946.084:   1116  65   8  892
1477478946.084:   1130  65   8  892
1477478946.085:   1111  65   8  892
1477478946.087:   1045  65   8  892
1477478946.088:    965  65   8  892
1477478946.091:    918  65   8  892
1477478946.093:    907  65   8  892
1477478946.105:    886  65   8  892
1477478946.105:    821  65   8  892
1477478946.105:    731  65   8  892
1477478946.105:    667  65   8  892
1477478946.105:    651  65   8  892
1477478946.113:    658  65   8  892
1477478946.114:    650  65   8  892
1477478946.114:    625  65   8  892
1477478946.119:    607  65   8  892
1477478946.119:    614  65   8  892
1477478946.132:    634  65   8  892
1477478946.133:    646  65   8  892
1477478946.133:    653  65   8  892
1477478946.133:    666  65   8  892
1477478946.133:    685  65   8  892
1477478946.133:    687  65   8  892
1477478946.133:    657  65   8  892
1477478946.134:    610  65   8  892
1477478946.134:    572  65   8  892
1477478946.134:    551  65   8  892
1477478946.134:    528  65   8  892
1477478946.139:    487  65   8  892
1477478946.139:    436  65   8  892
1477478946.141:    398  65   8  892
1477478946.142:    384  65   8  892
1477478946.143:    377  65   8  892
1477478946.146:    367  65   8  892
1477478946.148:    363  65   8  892
1477478946.160:    376  65   8  892
1477478946.161:    398  64   8  921
1477478946.161:    410  64   8  921
1477478946.161:    409  64   8  921
1477478946.161:    406  64   8  921
1477478946.161:    400  64   8  921
1477478946.162:    362  64   8  921
1477478946.166:    274  64   8  921
1477478946.166:    157  64   8  921
1477478946.168:     61  64   8  921
1477478946.169:     12  64   8  921
1477478946.171:      9  64   8  921
1477478946.173:     49  64   8  921
1477478946.175:    150  64   8  921
1477478946.180:    333  64   8  921
1477478946.180:    609  64   8  921
1477478946.190:   1007  64   8  921
1477478946.191:   1583  64   8  921
1477478946.191:   2368  64   8  921
1477478946.191:   3299  64   8  921
1477478946.191:   4245  64   8  921
1477478946.194:   5115  64   8  921
1477478946.194:   5929  64   8  921
1477478946.195:   6736  64   8  921
1477478946.197:   7490  64   8  921
1477478946.199:   8029  64   8  921
1477478946.204:   8203  64   8  921
1477478946.204:   7987  64   8  921
1477478946.216:   7453  64   8  921
1477478946.217:   6665  64   8  921
1477478946.217:   5639  64   8  921
1477478946.217:   4394  64   8  921
1477478946.217:   3012  64   8  921
1477478946.218:   1622  64   8  921
1477478946.219:    353  64   8  921
1477478946.221:   -698  64   8  921
1477478946.222:  -1464  64   8  921
1477478946.225:  -1929  64   8  921
1477478946.226:  -2141  64   8  921
1477478946.226:  -2171  64   8  921
1477478946.229:  -2061  64   8  921
1477478946.232:  -1810  64   8  921
1477478946.235:  -1436  64   8  921
1477478946.235:  -1031  64   8  921
1477478946.237:   -721  64   8  921
1477478946.238:   -568  64   8  921
1477478946.239:   -529  64   8  921
1477478946.244:   -515  64   8  921
1477478946.257:   -477  64   8  921
1477478946.258:   -431  64   8  921
1477478946.258:   -412  64   8  921
1477478946.258:   -432  64   8  921
1477478946.258:   -469  64   8  921
1477478946.259:   -487  64   8  921
1477478946.259:   -464  64   8  921
1477478946.260:   -398  64   8  921
1477478946.262:   -311  64   8  921
1477478946.263:   -233  64   8  921
1477478946.264:   -194  64   8  921
1477478946.266:   -198  64   8  921
1477478946.277:   -226  64   8  921
1477478946.278:   -249  64   8  921
1477478946.278:   -246  64   8  921
1477478946.278:   -210  64   8  921
1477478946.278:   -157  64   8  921
1477478946.279:   -109  64   8  921
1477478946.279:    -82  64   8  921
1477478946.281:    -79  64   8  921
1477478946.286:    -95  64   8  921
1477478946.286:   -119  64   8  921
1477478946.292:   -143  64   8  921
1477478946.292:   -160  64   8  921
1477478946.296:   -162  64   8  921
1477478946.297:   -141  64   8  921
1477478946.297:   -101  64   8  921
1477478946.298:    -56  64   8  921
1477478946.300:    -26  64   8  921
1477478946.304:    -16  64   8  921
1477478946.304:    -22  64   8  921
1477478946.305:    -29  64   8  921
1477478946.308:    -29  64   8  921
1477478946.308:    -25  64   8  921
1477478946.337:    -28  64   8  921
1477478946.338:    -37  64   8  921
1477478946.338:    -43  64   8  921
1477478946.338:    -31  64   8  921
1477478946.339:     -2  64   8  921
1477478946.339:     30  64   8  921
1477478946.339:     48  64   8  921
1477478946.339:     50  64   8  921
1477478946.339:     47  64   8  921
1477478946.340:     53  64   8  921
1477478946.340:     73  64   8  921
1477478946.340:     96  64   8  921
1477478946.340:    117  64   8  921
1477478946.340:    135  64   8  921
1477478946.341:    154  64   8  921
1477478946.341:    175  64   8  921
1477478946.346:    195  64   8  921
1477478946.346:    216  64   8  921
1477478946.347:    241  64   8  921
1477478946.374:    270  64   8  921
1477478946.378:    291  64   8  921
1477478946.378:    293  64   8  921
1477478946.378:    279  64   8  921
1477478946.379:    270  64   8  921
1477478946.379:    284  64   8  921
1477478946.379:    320  64   8  921
1477478946.379:    353  64   8  921
1477478946.379:    367  64   8  921
1477478946.380:    366  64   8  921
1477478946.381:    378  64   8  921
1477478946.383:    411  64   8  921
1477478946.383:    452  64   8  921
1477478946.383:    479  64   8  921
1477478946.383:    489  64   8  921
1477478946.383:    500  64   8  921
1477478946.384:    527  64   8  921
1477478946.385:    559  64   8  921
1477478946.387:    574  64   8  921
1477478946.387:    567  64   8  921
1477478946.390:    559  64   8  921
1477478946.390:    575  64   8  921
1477478946.392:    615  64   8  921
1477478946.393:    658  64   8  921
1477478946.396:    685  64   8  921
1477478946.412:    699  64   8  921
1477478946.412:    720  64   8  921
1477478946.412:    766  64   8  921
1477478946.412:    830  64   8  921
1477478946.413:    892  64   8  921
1477478946.413:    937  64   8  921
1477478946.413:    968  64   8  921
1477478946.413:   1001  64   8  921
1477478946.413:   1052  64   8  921
1477478946.416:   1120  64   8  921
1477478946.419:   1190  64   8  921
1477478946.419:   1242  64   8  921
1477478946.420:   1273  64   8  921
1477478946.424:   1298  64   8  921
1477478946.427:   1335  64   8  921
1477478946.427:   1384  64   8  921
1477478946.429:   1431  64   8  921
1477478946.430:   1462  64   8  921
1477478946.435:   1482  64   8  921
1477478946.435:   1508  64   8  921
1477478946.438:   1551  64   8  921
1477478946.439:   1602  64   8  921
1477478946.441:   1643  64   8  921
1477478946.442:   1670  64   8  921
1477478946.444:   1688  64   8  921
1477478946.445:   1708  64   8  921
1477478946.448:   1728  64   8  921
1477478946.449:   1741  64   8  921
1477478946.452:   1746  64   8  921
1477478946.454:   1755  64   8  921
1477478946.455:   1776  64   8  921
1477478946.460:   1804  64   8  921
1477478946.460:   1828  64   8  921
1477478946.462:   1843  64   8  921
1477478946.561:   1851  64   8  921
1477478946.561:   1861  64   8  921
1477478946.562:   1873  64   8  921
1477478946.562:   1877  64   8  921
1477478946.562:   1868  64   8  921
1477478946.562:   1848  64   8  921
1477478946.562:   1823  64   8  921
1477478946.563:   1794  64   8  921
1477478946.563:   1761  64   8  921
1477478946.563:   1727  64   8  921
1477478946.563:   1699  64   8  921
1477478946.563:   1677  64   8  921
1477478946.563:   1655  64   8  921
1477478946.564:   1625  64   8  921
1477478946.564:   1582  64   8  921
1477478946.564:   1533  64   8  921
1477478946.564:   1486  64   8  921
1477478946.564:   1442  64   8  921
1477478946.564:   1393  64   8  921
1477478946.564:   1331  64   8  921
1477478946.565:   1255  64   8  921
1477478946.565:   1173  64   8  921
1477478946.565:   1098  64   8  921
1477478946.565:   1034  64   8  921
1477478946.565:    971  64   8  921
1477478946.565:    902  64   8  921
1477478946.566:    829  64   8  921
1477478946.566:    766  64   8  921
1477478946.566:    719  64   8  921
1477478946.566:    675  64   8  921
1477478946.566:    613  64   8  921
1477478946.566:    528  64   8  921
1477478946.566:    434  64   8  921
1477478946.567:    350  64   8  921
1477478946.567:    279  64   8  921
1477478946.567:    211  64   8  921
1477478946.567:    140  64   8  921
1477478946.567:     74  64   8  921
1477478946.567:     23  64   8  921
1477478946.567:    -12  64   8  921
1477478946.568:    -46  64   8  921
1477478946.568:    -89  64   8  921
1477478946.568:   -135  64   8  921
1477478946.568:   -168  64   8  921
1477478946.584:   -182  64   8  921
1477478946.584:   -190  64   8  921
1477478946.584:   -208  64   8  921
1477478946.585:   -238  64   8  921
1477478946.585:   -268  64   8  921
1477478946.585:   -283  64   8  921
1477478946.585:   -281  64   8  921
1477478946.585:   -275  64   8  921
1477478946.585:   -276  64   8  921
1477478946.586:   -284  64   8  921
1477478946.586:   -293  64   8  921
1477478946.586:   -295  64   8  921
1477478946.586:   -291  64   8  921
1477478946.586:   -279  64   8  921
1477478946.587:   -263  64   8  921
1477478946.587:   -248  64   8  921
1477478946.587:   -242  64   8  921
1477478946.587:   -248  64   8  921
1477478946.587:   -262  64   8  921
1477478946.589:   -276  64   8  921
1477478946.590:   -289  64   8  921
1477478946.594:   -302  64   8  921
1477478946.595:   -313  64   8  921
1477478946.597:   -314  64   8  921
1477478946.597:   -301  64   8  921
1477478946.599:   -280  64   8  921
1477478946.601:   -262  64   8  921
1477478946.603:   -249  64   8  921
1477478946.606:   -231  64   8  921
1477478946.607:   -199  64   8  921
1477478946.626:   -160  64   8  921
1477478946.626:   -126  64   8  921
1477478946.626:   -103  64   8  921
1477478946.626:    -87  64   8  921
1477478946.626:    -74  64   8  921
1477478946.626:    -67  64   8  921
1477478946.627:    -64  64   8  921
1477478946.627:    -57  64   8  921
1477478946.627:    -41  64   8  921
1477478946.628:    -20  64   8  921
1477478946.628:     -7  64   8  921
1477478946.631:     -9  64   8  921
1477478946.632:    -18  64   8  921
1477478946.639:    -19  64   8  921
1477478946.639:     -7  64   8  921
1477478946.639:      8  64   8  921
1477478946.640:     13  64   8  921
1477478946.642:      0  64   8  921
1477478946.645:    -26  64   8  921
1477478946.648:    -51  64   8  921
1477478946.659:    -60  64   8  921
1477478946.659:    -43  64   8  921
1477478946.659:     -9  64   8  921
1477478946.659:     25  64   8  921
1477478946.659:     42  64   8  921
1477478946.659:     45  64   8  921
1477478946.660:     44  64   8  921
1477478946.662:     49  64   8  921
1477478946.667:     51  64   8  921
1477478946.667:     37  64   8  921
1477478946.668:      6  64   8  921
1477478946.672:    -27  64   8  921
1477478946.672:    -49  64   8  921
1477478946.673:    -61  64   8  921
1477478946.676:    -68  64   8  921
1477478946.680:    -76  64   8  921
1477478946.692:    -76  64   8  921
1477478946.693:    -61  64   8  921
1477478946.693:    -34  64   8  921
1477478946.693:    -10  64   8  921
1477478946.693:      2  64   8  921
1477478946.693:      0  64   8  921
1477478946.694:     -9  64   8  921
1477478946.694:    -18  64   8  921
1477478946.696:    -24  64   8  921
1477478946.698:    -30  64   8  921
1477478946.699:    -36  64   8  921
1477478946.701:    -46  64   8  921
1477478946.703:    -67  64   8  921
1477478946.710:    -97  64   8  921
1477478946.718:   -123  64   8  921
1477478946.718:   -131  64   8  921
1477478946.718:   -117  64   8  921
1477478946.718:    -96  64   8  921
1477478946.719:    -91  64   8  921
1477478946.719:   -108  64   8  921
1477478946.721:   -125  64   8  921
1477478946.722:   -118  64   8  921
1477478946.725:    -92  64   8  921
1477478946.725:    -76  64   8  921
1477478946.727:    -89  64   8  921
1477478946.728:   -118  64   8  921
1477478946.735:   -137  64   8  921
1477478946.735:   -135  64   8  921
1477478946.737:   -126  64   8  921
1477478946.738:   -129  64   8  921
1477478946.739:   -139  64   8  921
1477478946.740:   -141  64   8  921
1477478946.742:   -132  64   8  921
1477478946.749:   -124  64   8  921
1477478946.749:   -129  64   8  921
1477478946.749:   -141  64   8  921
1477478946.751:   -147  64   8  921
1477478946.753:   -144  64   8  921
1477478946.757:   -138  64   8  921
1477478946.757:   -138  64   8  921
1477478946.763:   -139  64   8  921
1477478946.763:   -141  64   8  921
1477478946.763:   -147  64   8  921
1477478946.765:   -163  64   8  921
1477478946.768:   -186  64   8  921
1477478946.768:   -211  64   8  921
1477478946.770:   -233  64   8  921
1477478946.775:   -253  64   8  921
1477478946.806:   -271  64   8  921
1477478946.806:   -284  64   8  921
1477478946.806:   -290  64   8  921
1477478946.806:   -288  64   8  921
1477478946.806:   -282  64   8  921
1477478946.806:   -270  64   8  921
1477478946.807:   -251  64   8  921
1477478946.807:   -226  64   8  921
1477478946.807:   -208  64   8  921
1477478946.807:   -201  64   8  921
1477478946.807:   -199  64   8  921
1477478946.807:   -192  64   8  921
1477478946.808:   -175  64   8  921
1477478946.808:   -156  64   8  921
1477478946.809:   -146  64   8  921
1477478946.809:   -153  64   8  921
1477478946.809:   -170  64   8  921
1477478946.811:   -183  64   8  921
1477478946.811:   -181  64   8  921
1477478946.811:   -168  64   8  921
1477478946.830:   -152  64   8  921
1477478946.830:   -143  64   8  921
1477478946.830:   -142  64   8  921
1477478946.830:   -144  64   8  921
1477478946.831:   -140  64   8  921
1477478946.831:   -133  64   8  921
1477478946.831:   -128  64   8  921
1477478946.831:   -124  64   8  921
1477478946.831:   -123  64   8  921
1477478946.832:   -120  64   8  921
1477478946.833:   -117  64   8  921
1477478946.836:   -116  64   8  921
1477478946.837:   -119  64   8  921
1477478946.838:   -127  64   8  921
1477478946.840:   -136  64   8  921
1477478946.843:   -147  64   8  921
1477478946.855:   -158  64   8  921
1477478946.855:   -170  64   8  921
1477478946.855:   -185  64   8  921
1477478946.855:   -203  64   8  921
1477478946.855:   -220  64   8  921
1477478946.855:   -224  64   8  921
1477478946.857:   -210  64   8  921
1477478946.858:   -183  64   8  921
1477478946.863:   -151  64   8  921
1477478946.863:   -126  64   8  921
1477478946.864:   -112  64   8  921
1477478946.865:   -106  64   8  921
1477478946.874:   -101  64   8  921
1477478946.874:    -92  64   8  921
1477478946.896:    -81  64   8  921
1477478946.897:    -79  64   8  921
1477478946.897:    -94  64   8  921
1477478946.897:   -124  64   8  921
1477478946.897:   -158  64   8  921
1477478946.898:   -185  64   8  921
1477478946.898:   -205  64   8  921
1477478946.898:   -225  64   8  921
1477478946.898:   -246  64   8  921
1477478946.898:   -261  64   8  921
1477478946.898:   -258  64   8  921
1477478946.899:   -238  64   8  921
1477478946.899:   -212  64   8  921
1477478946.899:   -193  64   8  921
1477478946.899:   -183  64   8  921
1477478946.904:   -176  64   8  921
1477478946.904:   -170  64   8  921
1477478946.907:   -167  64   8  921
1477478946.927:   -169  64   8  921
1477478946.927:   -179  64   8  921
1477478946.927:   -193  64   8  921
1477478946.927:   -208  64   8  921
1477478946.927:   -220  64   8  921
1477478946.927:   -226  64   8  921
1477478946.928:   -224  64   8  921
1477478946.928:   -213  64   8  921
1477478946.928:   -202  64   8  921
1477478946.928:   -199  64   8  921
1477478946.928:   -210  64   8  921
1477478946.931:   -224  64   8  921
1477478946.931:   -227  64   8  921
1477478946.933:   -212  64   8  921
1477478946.936:   -185  64   8  921
1477478946.940:   -163  64   8  921
1477478946.940:   -155  64   8  921
1477478946.944:   -159  64   8  921
1477478946.944:   -158  64   8  921
1477478946.944:   -140  64   8  921
1477478946.950:   -106  64   8  921
1477478946.950:    -73  64   8  921
1477478946.965:    -56  64   8  921
1477478946.965:    -59  64   8  921
1477478946.965:    -68  64   8  921
1477478946.965:    -68  64   8  921
1477478946.966:    -54  64   8  921
1477478946.966:    -33  64   8  921
1477478946.966:    -19  64   8  921
1477478946.966:    -22  64   8  921
1477478946.967:    -37  64   8  921
1477478946.969:    -54  64   8  921
1477478946.974:    -65  64   8  921
1477478946.974:    -68  64   8  921
1477478946.974:    -66  64   8  921
1477478946.977:    -68  64   8  921
1477478946.992:    -78  64   8  921
1477478946.992:    -91  64   8  921
1477478946.992:   -100  64   8  921
1477478946.992:   -100  64   8  921
1477478946.992:    -88  64   8  921
1477478946.992:    -67  64   8  921
1477478946.993:    -41  64   8  921
1477478946.995:    -17  64   8  921
1477478946.995:     -2  64   8  921
1477478947.000:      0  64   8  921
1477478947.000:     -6  64   8  921
1477478947.000:    -13  64   8  921
1477478947.005:    -16  64   8  921
1477478947.005:    -16  64   8  921
1477478947.023:    -20  64   8  921
1477478947.023:    -32  64   8  921
1477478947.023:    -48  64   8  921
1477478947.023:    -57  64   8  921
1477478947.023:    -51  64   8  921
1477478947.023:    -28  64   8  921
1477478947.023:      4  64   8  921
1477478947.024:     31  64   8  921
1477478947.024:     44  64   8  921
1477478947.024:     40  64   8  921
1477478947.026:     25  64   8  921
1477478947.027:     14  64   8  921
1477478947.032:     14  64   8  921
1477478947.033:     25  64   8  921
1477478947.037:     43  64   8  921
1477478947.037:     61  64   8  921
1477478947.048:     82  64   8  921
1477478947.048:    110  64   8  921
1477478947.049:    148  64   8  921
1477478947.049:    193  64   8  921
1477478947.049:    237  64   8  921
1477478947.050:    277  64   8  921
1477478947.050:    312  64   8  921
1477478947.052:    340  64   8  921
1477478947.053:    362  64   8  921
1477478947.054:    375  64   8  921
1477478947.057:    379  64   8  921
1477478947.059:    375  64   8  921
1477478947.069:    369  64   8  921
1477478947.069:    365  64   8  921
1477478947.070:    360  64   8  921
1477478947.071:    341  64   8  921
1477478947.071:    307  64   8  921
1477478947.071:    266  64   8  921
1477478947.073:    239  64   8  921
1477478947.078:    233  64   8  921
1477478947.093:    234  64   8  921
1477478947.093:    224  64   8  921
1477478947.093:    198  64   8  921
1477478947.093:    170  64   8  921
1477478947.093:    153  64   8  921
1477478947.093:    145  64   8  921
1477478947.094:    132  64   8  921
1477478947.094:    108  64   8  921
1477478947.094:     82  64   8  921
1477478947.094:     65  64   8  921
1477478947.096:     58  64   8  921
1477478947.098:     52  64   8  921
1477478947.101:     45  64   8  921
1477478947.105:     43  64   8  921
1477478947.105:     50  64   8  921
1477478947.107:     63  64   8  921
1477478947.109:     70  64   8  921
1477478947.143:     64  64   8  921
1477478947.143:     51  64   8  921
1477478947.144:     41  64   8  921
1477478947.144:     42  64   8  921
1477478947.144:     51  64   8  921
1477478947.145:     61  64   8  921
1477478947.145:     65  63   8  934
1477478947.145:     69  63   8  934
1477478947.147:     78  63   8  934
1477478947.148:     95  63   8  934
1477478947.151:    116  63   8  934
1477478947.151:    136  63   8  934
1477478947.151:    157  63   8  934
1477478947.151:    186  63   8  934
1477478947.151:    217  63   8  934
1477478947.152:    225  63   8  934
1477478947.152:    180  63   8  934
1477478947.152:     69  63   8  934
1477478947.152:    -82  63   8  934
1477478947.153:   -233  63   8  934
1477478947.154:   -365  63   8  934
1477478947.156:   -482  63   8  934
1477478947.157:   -575  63   8  934
1477478947.158:   -602  63   8  934
1477478947.160:   -525  63   8  934
1477478947.160:   -355  63   8  934
1477478947.162:   -114  63   8  934
