timestamp: ADC HeartRate4sAverage HeartRate30sAverage HRV8sAverage
1477467498.084:  -1455 150  20  400
1477467498.084:  -1478 150  20  400
1477467498.085:  -1490 150  20  400
1477467498.085:  -1492 150  20  400
1477467498.085:  -1482 150  20  400
1477467498.085:  -1456 150  20  400
1477467498.086:  -1416 150  20  400
1477467498.086:  -1381 150  20  400
1477467498.086:  -1364 150  20  400
1477467498.086:  -1359 150  20  400
1477467498.087:  -1342 150  20  400
1477467498.087:  -1304 150  20  400
1477467498.087:  -1268 150  20  400
1477467498.087:  -1262 150  20  400
1477467498.087:  -1291 150  20  400
1477467498.088:  -1325 150  20  400
1477467498.088:  -1329 150  20  400
1477467498.088:  -1295 150  20  400
1477467498.088:  -1246 150  20  400
1477467498.088:  -1208 150  20  400
1477467498.089:  -1188 150  20  400
1477467498.089:  -1172 150  20  400
1477467498.089:  -1153 150  20  400
1477467498.089:  -1137 150  20  400
1477467498.089:  -1143 150  20  400
1477467498.096:  -1177 150  20  400
1477467498.109:  -1229 150  20  400
1477467498.110:  -1277 150  20  400
1477467498.111:  -1313 150  20  400
1477467498.111:  -1353 150  20  400
1477467498.112:  -1413 150  20  400
1477467498.115:  -1491 150  20  400
1477467498.115:  -1562 150  20  400
1477467498.116:  -1609 150  20  400
1477467498.117:  -1636 150  20  400
1477467498.117:  -1666 150  20  400
1477467498.118:  -1708 150  20  400
1477467498.118:  -1749 150  20  400
1477467498.119:  -1769 150  20  400
1477467498.121:  -1765 150  20  400
1477467498.134:  -1747 150  20  400
1477467498.135:  -1727 150  20  400
1477467498.135:  -1707 150  20  400
1477467498.136:  -1691 150  20  400
1477467498.137:  -1688 150  20  400
1477467498.137:  -1703 150  20  400
1477467498.138:  -1726 150  20  400
1477467498.138:  -1738 150  20  400
1477467498.138:  -1729 150  20  400
1477467498.138:  -1708 150  20  400
1477467498.141:  -1698 150  20  400
1477467498.142:  -1708 150  20  400
1477467498.144:  -1733 150  20  400
1477467498.146:  -1765 150  20  400
1477467498.154:  -1806 150  20  400
1477467498.154:  -1865 150  20  400
1477467498.155:  -1945 150  20  400
1477467498.155:  -2031 150  20  400
1477467498.156:  -2101 150  20  400
1477467498.157:  -2131 150  20  400
1477467498.159:  -2089 150  20  400
1477467498.161:  -1935 150  20  400
1477467498.165:  -1643 150  20  400
1477467498.166:  -1208 150  20  400
1477467498.169:   -656 150  20  400
1477467498.169:    -27 150  20  400
1477467498.172:    644 150  20  400
1477467498.172:   1330 150  20  400
1477467498.175:   2008 150  20  400
1477467498.181:   2626 150  20  400
1477467498.199:   3083 150  20  400
1477467498.199:   3248 150  20  400
1477467498.199:   3037 150  20  400
1477467498.199:   2486 150  20  400
1477467498.200:   1712 150  20  400
1477467498.200:    808 150  20  400
1477467498.201:   -230 150  20  400
1477467498.201:  -1433 150  20  400
1477467498.201:  -2720 150  20  400
1477467498.201:  -3876 150  20  400
1477467498.201:  -4704 150  20  400
1477467498.202:  -5182 150  20  400
1477467498.202:  -5428 150  20  400
1477467498.224:  -5530 150  20  400
1477467498.233:  -5447 150  20  400
1477467498.301:  -5108 150  20  400
1477467498.301:  -4568 150  20  400
1477467498.302:  -3992 150  20  400
1477467498.303:  -3510 150  20  400
1477467498.303:  -3113 150  20  400
1477467498.304:  -2733 150  20  400
1477467498.304:  -2361 150  20  400
1477467498.305:  -2068 150  20  400
1477467498.306:  -1901 150  20  400
1477467498.307:  -1821 150  20  400
1477467498.307:  -1753 150  20  400
1477467498.307:  -1673 150  20  400
1477467498.308:  -1609 150  20  400
1477467498.308:  -1573 150  20  400
1477467498.308:  -1539 150  20  400
1477467498.308:  -1483 150  20  400
1477467498.308:  -1423 150  20  400
1477467498.309:  -1391 150  20  400
1477467498.309:  -1392 150  20  400
1477467498.309:  -1396 150  20  400
1477467498.309:  -1379 150  20  400
1477467498.336:  -1343 150  20  400
1477467498.337:  -1298 150  20  400
1477467498.337:  -1242 150  20  400
1477467498.338:  -1160 150  20  400
1477467498.338:  -1061 150  20  400
1477467498.339:   -970 150  20  400
1477467498.339:   -909 150  20  400
1477467498.339:   -872 150  20  400
1477467498.340:   -841 150  20  400
1477467498.340:   -812 150  20  400
1477467498.341:   -798 150  20  400
1477467498.341:   -806 150  20  400
1477467498.341:   -818 150  20  400
1477467498.341:   -809 150  20  400
1477467498.342:   -771 150  20  400
1477467498.342:   -721 150  20  400
1477467498.342:   -676 150  20  400
1477467498.342:   -633 150  20  400
1477467498.343:   -578 150  20  400
1477467498.343:   -516 150  20  400
1477467498.343:   -471 150  20  400
1477467498.344:   -459 150  20  400
1477467498.344:   -461 150  20  400
1477467498.344:   -446 150  20  400
1477467498.344:   -405 150  20  400
1477467498.345:   -366 150  20  400
1477467498.345:   -364 150  20  400
1477467498.345:   -399 150  20  400
1477467498.359:   -441 150  20  400
1477467498.360:   -466 150  20  400
1477467498.361:   -481 150  20  400
1477467498.361:   -508 150  20  400
1477467498.362:   -549 150  20  400
1477467498.364:   -583 150  20  400
1477467498.364:   -589 150  20  400
1477467498.365:   -571 150  20  400
1477467498.365:   -543 150  20  400
1477467498.366:   -511 150  20  400
1477467498.377:   -468 150  20  400
1477467498.379:   -414 147  19  400
1477467498.380:   -360 147  19  400
1477467498.381:   -314 147  19  400
1477467498.381:   -272 147  19  400
1477467498.382:   -223 147  19  400
1477467498.383:   -166 147  19  400
1477467498.383:   -118 147  19  400
1477467498.384:    -96 147  19  400
1477467498.385:    -96 147  19  400
1477467498.385:    -98 147  19  400
1477467498.386:    -85 147  19  400
1477467498.386:    -62 147  19  400
1477467498.387:    -45 147  19  400
1477467498.387:    -44 147  19  400
1477467498.387:    -50 147  19  400
1477467498.388:    -48 147  19  400
1477467498.388:    -23 147  19  400
1477467498.388:     19 147  19  400
1477467498.388:     54 147  19  400
1477467498.389:     61 147  19  400
1477467498.389:     41 147  19  400
1477467498.389:      9 147  19  400
1477467498.389:    -23 147  19  400
1477467498.390:    -61 147  19  400
1477467498.390:   -118 147  19  400
1477467498.390:   -195 147  19  400
1477467498.390:   -279 147  19  400
1477467498.391:   -359 147  19  400
1477467498.391:   -438 147  19  400
1477467498.391:   -522 147  19  400
1477467498.391:   -600 147  19  400
1477467498.391:   -658 147  19  400
1477467498.392:   -700 147  19  400
1477467498.392:   -749 147  19  400
1477467498.392:   -819 147  19  400
1477467498.393:   -894 147  19  400
1477467498.396:   -947 147  19  400
1477467498.398:   -974 147  19  400
1477467498.402:  -1003 147  19  400
1477467498.413:  -1059 147  19  400
1477467498.414:  -1135 147  19  400
1477467498.415:  -1201 147  19  400
1477467498.415:  -1242 147  19  400
1477467498.416:  -1265 147  19  400
1477467498.417:  -1290 147  19  400
1477467498.417:  -1320 147  19  400
1477467498.418:  -1343 147  19  400
1477467498.419:  -1349 147  19  400
1477467498.419:  -1347 147  19  400
1477467498.421:  -1347 147  19  400
1477467498.423:  -1353 147  19  400
1477467498.433:  -1360 147  19  400
1477467498.434:  -1370 147  19  400
1477467498.434:  -1388 147  19  400
1477467498.435:  -1416 147  19  400
1477467498.436:  -1447 147  19  400
1477467498.436:  -1466 147  19  400
1477467498.437:  -1471 147  19  400
1477467498.440:  -1475 147  19  400
1477467498.444:  -1493 147  19  400
1477467498.444:  -1519 147  19  400
1477467498.455:  -1535 147  19  400
1477467498.456:  -1530 147  19  400
1477467498.457:  -1516 147  19  400
1477467498.457:  -1518 147  19  400
1477467498.458:  -1542 147  19  400
1477467498.459:  -1565 147  19  400
1477467498.459:  -1564 147  19  400
1477467498.461:  -1538 147  19  400
1477467498.462:  -1514 147  19  400
1477467498.465:  -1512 147  19  400
1477467498.474:  -1526 147  19  400
1477467498.474:  -1536 147  19  400
1477467498.474:  -1527 147  19  400
1477467498.475:  -1496 147  19  400
1477467498.475:  -1445 147  19  400
1477467498.478:  -1378 147  19  400
1477467498.479:  -1308 147  19  400
1477467498.481:  -1250 147  19  400
1477467498.482:  -1209 147  19  400
1477467498.490:  -1173 147  19  400
1477467498.496:  -1131 147  19  400
1477467498.497:  -1089 147  19  400
1477467498.498:  -1066 147  19  400
1477467498.499:  -1069 147  19  400
1477467498.500:  -1078 147  19  400
1477467498.500:  -1067 147  19  400
1477467498.503:  -1026 147  19  400
1477467498.503:   -971 147  19  400
1477467498.503:   -923 147  19  400
1477467498.504:   -890 147  19  400
1477467498.507:   -869 147  19  400
1477467498.509:   -863 147  19  400
1477467498.509:   -884 147  19  400
1477467498.511:   -938 147  19  400
1477467498.528:  -1009 147  19  400
1477467498.529:  -1071 147  19  400
1477467498.529:  -1112 147  19  400
1477467498.530:  -1143 147  19  400
1477467498.530:  -1181 147  19  400
1477467498.530:  -1229 147  19  400
1477467498.531:  -1272 147  19  400
1477467498.531:  -1292 147  19  400
1477467498.532:  -1282 147  19  400
1477467498.533:  -1263 147  19  400
1477467498.533:  -1268 147  19  400
1477467498.536:  -1319 147  19  400
1477467498.537:  -1409 147  19  400
1477467498.539:  -1508 147  19  400
1477467498.548:  -1590 147  19  400
1477467498.549:  -1655 147  19  400
1477467498.550:  -1727 147  19  400
1477467498.551:  -1804 147  19  400
1477467498.551:  -1833 147  19  400
1477467498.552:  -1739 147  19  400
1477467498.552:  -1482 147  19  400
1477467498.553:  -1085 147  19  400
1477467498.554:   -601 147  19  400
1477467498.559:    -57 147  19  400
1477467498.565:    552 147  19  400
1477467498.568:   1227 147  19  400
1477467498.569:   1934 147  19  400
1477467498.569:   2593 147  19  400
1477467498.570:   3096 147  19  400
1477467498.571:   3336 147  19  400
1477467498.573:   3253 147  19  400
1477467498.574:   2863 147  19  400
1477467498.575:   2247 147  19  400
1477467498.576:   1462 147  19  400
1477467498.579:    498 147  19  400
1477467498.581:   -670 147  19  400
1477467498.582:  -1969 147  19  400
1477467498.588:  -3192 147  19  400
1477467498.601:  -4129 147  19  400
1477467498.602:  -4712 147  19  400
1477467498.602:  -5029 147  19  400
1477467498.603:  -5172 147  19  400
1477467498.604:  -5129 147  19  400
1477467498.604:  -4837 147  19  400
1477467498.609:  -4318 147  19  400
1477467498.609:  -3717 147  19  400
1477467498.609:  -3189 147  19  400
1477467498.609:  -2786 147  19  400
1477467498.610:  -2464 147  19  400
1477467498.611:  -2183 147  19  400
1477467498.622:  -1965 147  19  400
1477467498.622:  -1843 147  19  400
1477467498.622:  -1794 147  19  400
1477467498.622:  -1752 147  19  400
1477467498.622:  -1668 147  19  400
1477467498.622:  -1558 147  19  400
1477467498.622:  -1463 147  19  400
1477467498.649:  -1393 147  19  400
1477467498.651:  -1328 147  19  400
1477467498.652:  -1259 147  19  400
1477467498.655:  -1207 147  19  400
1477467498.656:  -1197 147  19  400
1477467498.658:  -1210 147  19  400
1477467498.660:  -1203 147  19  400
1477467498.660:  -1154 147  19  400
1477467498.661:  -1089 147  19  400
1477467498.661:  -1052 147  19  400
1477467498.662:  -1054 147  19  400
1477467498.663:  -1059 147  19  400
1477467498.663:  -1041 147  19  400
1477467498.664:  -1019 147  19  400
1477467498.665:  -1032 147  19  400
1477467498.665:  -1087 147  19  400
1477467498.666:  -1138 147  19  400
1477467498.667:  -1143 147  19  400
1477467498.668:  -1106 147  19  400
1477467498.706:  -1063 147  19  400
1477467498.812:  -1029 147  19  400
1477467498.812:   -978 147  19  400
1477467498.814:   -888 147  19  400
1477467498.814:   -780 147  19  400
1477467498.815:   -703 147  19  400
1477467498.815:   -675 147  19  400
1477467498.815:   -663 147  19  400
1477467498.831:   -626 147  19  400
1477467498.832:   -559 147  19  400
1477467498.832:   -503 147  19  400
1477467498.832:   -493 147  19  400
1477467498.833:   -516 147  19  400
1477467498.833:   -531 147  19  400
1477467498.833:   -516 147  19  400
1477467498.833:   -483 147  19  400
1477467498.834:   -461 147  19  400
1477467498.834:   -451 147  19  400
1477467498.834:   -427 147  19  400
1477467498.834:   -374 147  19  400
1477467498.835:   -308 147  19  400
1477467498.835:   -251 147  19  400
1477467498.835:   -202 147  19  400
1477467498.835:   -142 147  19  400
1477467498.835:    -59 147  19  400
1477467498.835:     28 147  19  400
1477467498.836:     90 147  19  400
1477467498.836:    128 147  19  400
1477467498.836:    168 147  19  400
1477467498.836:    230 147  19  400
1477467498.837:    295 147  19  400
1477467498.837:    326 147  19  400
1477467498.838:    305 148  19  403
1477467498.838:    250 148  19  403
1477467498.839:    194 148  19  403
1477467498.839:    149 148  19  403
1477467498.839:    107 148  19  403
1477467498.840:     64 148  19  403
1477467498.862:     31 148  19  403
1477467498.863:     21 148  19  403
1477467498.864:     25 148  19  403
1477467498.864:     19 148  19  403
1477467498.865:     -3 148  19  403
1477467498.866:    -30 148  19  403
1477467498.866:    -44 148  19  403
1477467498.867:    -51 148  19  403
1477467498.868:    -71 148  19  403
1477467498.868:   -118 148  19  403
1477467498.869:   -177 148  19  403
1477467498.869:   -224 148  19  403
1477467498.870:   -246 148  19  403
1477467498.871:   -256 148  19  403
1477467498.884:   -274 148  19  403
1477467498.885:   -313 148  19  403
1477467498.885:   -368 148  19  403
1477467498.885:   -429 148  19  403
1477467498.886:   -489 148  19  403
1477467498.886:   -548 148  19  403
1477467498.886:   -605 148  19  403
1477467498.886:   -664 148  19  403
1477467498.887:   -730 148  19  403
1477467498.887:   -807 148  19  403
1477467498.887:   -889 148  19  403
1477467498.887:   -963 148  19  403
1477467498.889:  -1025 148  19  403
1477467498.890:  -1079 148  19  403
1477467498.890:  -1132 148  19  403
1477467498.890:  -1182 148  19  403
1477467498.890:  -1225 148  19  403
1477467498.891:  -1260 148  19  403
1477467498.891:  -1291 148  19  403
1477467498.891:  -1325 148  19  403
1477467498.891:  -1363 148  19  403
1477467498.891:  -1406 148  19  403
1477467498.902:  -1448 148  19  403
1477467498.902:  -1483 148  19  403
1477467498.903:  -1503 148  19  403
1477467498.903:  -1510 148  19  403
1477467498.903:  -1513 148  19  403
1477467498.904:  -1520 148  19  403
1477467498.906:  -1526 148  19  403
1477467498.907:  -1521 148  19  403
1477467498.908:  -1507 148  19  403
1477467498.908:  -1498 148  19  403
1477467498.919:  -1506 148  19  403
1477467498.920:  -1529 148  19  403
1477467498.921:  -1554 148  19  403
1477467498.921:  -1572 148  19  403
1477467498.922:  -1582 148  19  403
1477467498.923:  -1585 148  19  403
1477467498.923:  -1575 148  19  403
1477467498.924:  -1550 148  19  403
1477467498.924:  -1521 148  19  403
1477467498.925:  -1508 148  19  403
1477467498.926:  -1514 148  19  403
1477467498.926:  -1525 148  19  403
1477467498.936:  -1523 148  19  403
1477467498.937:  -1509 148  19  403
1477467498.938:  -1504 148  19  403
1477467498.939:  -1524 148  19  403
1477467498.955:  -1558 148  19  403
1477467498.955:  -1576 148  19  403
1477467498.956:  -1565 148  19  403
1477467498.956:  -1537 148  19  403
1477467498.956:  -1519 148  19  403
1477467498.957:  -1524 148  19  403
1477467498.957:  -1534 148  19  403
1477467498.957:  -1513 148  19  403
1477467498.957:  -1444 148  19  403
1477467498.957:  -1343 148  19  403
1477467498.958:  -1250 148  19  403
1477467498.958:  -1193 148  19  403
1477467498.958:  -1164 148  19  403
1477467498.958:  -1136 148  19  403
1477467498.958:  -1093 148  19  403
1477467498.958:  -1052 148  19  403
1477467498.959:  -1032 148  19  403
1477467498.959:  -1030 148  19  403
1477467498.959:  -1025 148  19  403
1477467498.959:   -996 148  19  403
1477467498.959:   -939 148  19  403
1477467498.959:   -865 148  19  403
1477467498.959:   -782 148  19  403
1477467498.959:   -700 148  19  403
1477467498.960:   -629 148  19  403
1477467498.960:   -571 148  19  403
1477467498.960:   -521 148  19  403
1477467498.960:   -471 148  19  403
1477467498.960:   -424 148  19  403
1477467498.960:   -391 148  19  403
1477467498.960:   -378 148  19  403
1477467498.961:   -374 148  19  403
1477467498.961:   -364 148  19  403
1477467498.961:   -355 148  19  403
1477467498.961:   -374 148  19  403
1477467498.961:   -433 148  19  403
1477467498.961:   -516 148  19  403
1477467498.961:   -588 148  19  403
1477467498.962:   -638 148  19  403
1477467498.962:   -679 148  19  403
1477467498.963:   -733 148  19  403
1477467498.963:   -796 148  19  403
1477467498.963:   -844 148  19  403
1477467498.963:   -863 148  19  403
1477467498.963:   -859 148  19  403
1477467498.964:   -851 148  19  403
1477467498.964:   -848 148  19  403
1477467498.964:   -852 148  19  403
1477467498.964:   -866 148  19  403
1477467498.964:   -895 148  19  403
1477467498.964:   -929 148  19  403
1477467498.964:   -948 148  19  403
1477467498.965:   -948 148  19  403
1477467498.965:   -949 148  19  403
1477467498.965:   -975 148  19  403
1477467498.965:  -1019 148  19  403
1477467498.968:  -1042 148  19  403
1477467498.972:  -1018 148  19  403
1477467498.992:   -970 148  19  403
1477467498.993:   -941 148  19  403
1477467498.993:   -949 148  19  403
1477467498.993:   -963 148  19  403
1477467498.993:   -954 148  19  403
1477467498.993:   -929 148  19  403
1477467498.993:   -920 148  19  403
1477467498.993:   -939 148  19  403
1477467498.994:   -958 148  19  403
1477467498.994:   -955 148  19  403
1477467498.994:   -939 148  19  403
1477467498.996:   -938 148  19  403
1477467498.996:   -957 148  19  403
1477467498.998:   -967 148  19  403
1477467499.000:   -955 148  19  403
1477467499.006:   -938 148  19  403
1477467499.015:   -942 148  19  403
1477467499.015:   -964 148  19  403
1477467499.016:   -973 148  19  403
1477467499.016:   -954 148  19  403
1477467499.016:   -922 148  19  403
1477467499.017:   -904 148  19  403
1477467499.017:   -901 148  19  403
1477467499.018:   -898 148  19  403
1477467499.018:   -882 148  19  403
1477467499.053:   -858 148  19  403
1477467499.054:   -838 148  19  403
1477467499.054:   -830 148  19  403
1477467499.055:   -834 148  19  403
1477467499.056:   -855 148  19  403
1477467499.068:   -885 148  19  403
1477467499.069:   -907 148  19  403
1477467499.069:   -911 148  19  403
1477467499.070:   -905 148  19  403
1477467499.071:   -909 148  19  403
1477467499.075:   -938 148  19  403
1477467499.076:   -982 148  19  403
1477467499.076:  -1019 148  19  403
1477467499.077:  -1038 148  19  403
1477467499.078:  -1050 148  19  403
1477467499.078:  -1067 148  19  403
1477467499.078:  -1082 148  19  403
1477467499.078:  -1077 148  19  403
1477467499.079:  -1039 148  19  403
1477467499.079:   -976 148  19  403
1477467499.079:   -911 148  19  403
1477467499.080:   -857 148  19  403
1477467499.080:   -810 148  19  403
1477467499.081:   -756 148  19  403
1477467499.081:   -694 148  19  403
1477467499.081:   -643 148  19  403
1477467499.081:   -625 148  19  403
1477467499.082:   -636 148  19  403
1477467499.082:   -644 148  19  403
1477467499.082:   -628 148  19  403
1477467499.082:   -602 148  19  403
1477467499.082:   -604 148  19  403
1477467499.087:   -658 148  19  403
1477467499.087:   -755 148  19  403
1477467499.088:   -864 148  19  403
1477467499.102:   -969 148  19  403
1477467499.102:  -1074 148  19  403
1477467499.102:  -1188 148  19  403
1477467499.102:  -1297 148  19  403
1477467499.103:  -1369 148  19  403
1477467499.103:  -1371 148  19  403
1477467499.103:  -1268 148  19  403
1477467499.104:  -1026 148  19  403
1477467499.105:   -629 148  19  403
1477467499.110:   -104 149  19  395
1477467499.110:    495 149  19  395
1477467499.114:   1123 149  19  395
1477467499.122:   1780 149  19  395
1477467499.122:   2473 149  19  395
1477467499.122:   3172 149  19  395
1477467499.124:   3774 149  19  395
1477467499.125:   4135 149  19  395
1477467499.126:   4150 149  19  395
1477467499.128:   3819 149  19  395
1477467499.129:   3230 149  19  395
1477467499.132:   2488 149  19  395
1477467499.132:   1626 149  19  395
1477467499.143:    611 149  19  395
1477467499.143:   -571 149  19  395
1477467499.143:  -1824 149  19  395
1477467499.143:  -2959 149  19  395
1477467499.143:  -3823 149  19  395
1477467499.143:  -4393 149  19  395
1477467499.144:  -4752 149  19  395
1477467499.147:  -4965 149  19  395
1477467499.149:  -5023 149  19  395
1477467499.153:  -4889 149  19  395
1477467499.154:  -4586 149  19  395
1477467499.157:  -4193 149  19  395
1477467499.157:  -3779 149  19  395
1477467499.160:  -3362 149  19  395
1477467499.161:  -2948 149  19  395
1477467499.163:  -2575 149  19  395
1477467499.179:  -2294 149  19  395
1477467499.181:  -2101 149  19  395
1477467499.182:  -1944 149  19  395
1477467499.182:  -1777 149  19  395
1477467499.183:  -1606 149  19  395
1477467499.184:  -1469 149  19  395
1477467499.185:  -1383 149  19  395
1477467499.186:  -1329 149  19  395
1477467499.198:  -1283 149  19  395
1477467499.198:  -1237 149  19  395
1477467499.198:  -1199 149  19  395
1477467499.198:  -1170 149  19  395
1477467499.198:  -1141 149  19  395
1477467499.198:  -1111 149  19  395
1477467499.199:  -1085 149  19  395
1477467499.199:  -1058 149  19  395
1477467499.199:  -1021 149  19  395
1477467499.199:   -974 149  19  395
1477467499.199:   -931 149  19  395
1477467499.201:   -905 149  19  395
1477467499.204:   -891 149  19  395
1477467499.206:   -880 149  19  395
1477467499.211:   -875 149  19  395
1477467499.211:   -882 149  19  395
1477467499.212:   -901 149  19  395
1477467499.214:   -909 149  19  395
1477467499.214:   -887 149  19  395
1477467499.217:   -835 149  19  395
1477467499.219:   -786 149  19  395
1477467499.225:   -763 149  19  395
1477467499.232:   -765 149  19  395
1477467499.233:   -767 149  19  395
1477467499.233:   -756 149  19  395
1477467499.233:   -744 149  19  395
1477467499.234:   -747 149  19  395
1477467499.234:   -756 149  19  395
1477467499.238:   -747 149  19  395
1477467499.240:   -714 149  19  395
1477467499.250:   -683 149  19  395
1477467499.252:   -678 149  19  395
1477467499.253:   -687 149  19  395
1477467499.256:   -679 149  19  395
1477467499.256:   -645 149  19  395
1477467499.257:   -614 149  19  395
1477467499.259:   -619 149  19  395
1477467499.259:   -650 149  19  395
1477467499.270:   -663 149  19  395
1477467499.272:   -627 149  19  395
1477467499.273:   -557 149  19  395
1477467499.274:   -496 149  19  395
1477467499.275:   -461 149  19  395
1477467499.276:   -432 149  19  395
1477467499.277:   -376 149  19  395
1477467499.277:   -288 149  19  395
1477467499.290:   -188 149  19  395
1477467499.291:    -97 149  19  395
1477467499.292:    -19 149  19  395
1477467499.293:     59 149  19  395
1477467499.294:    150 149  19  395
1477467499.295:    248 149  19  395
1477467499.296:    328 149  19  395
1477467499.297:    372 149  19  395
1477467499.298:    382 149  19  395
1477467499.299:    384 149  19  395
1477467499.311:    401 149  19  395
1477467499.311:    432 149  19  395
1477467499.312:    458 149  19  395
1477467499.313:    473 149  19  395
1477467499.314:    502 149  19  395
1477467499.315:    559 149  19  395
1477467499.316:    624 149  19  395
1477467499.316:    657 149  19  395
1477467499.317:    650 149  19  395
1477467499.317:    640 149  19  395
1477467499.317:    662 149  19  395
1477467499.318:    702 149  19  395
1477467499.318:    713 149  19  395
1477467499.318:    676 149  19  395
1477467499.322:    628 149  19  395
1477467499.323:    611 149  19  395
1477467499.326:    622 149  19  395
1477467499.327:    609 149  19  395
1477467499.328:    538 149  19  395
1477467499.330:    428 149  19  395
1477467499.331:    326 149  19  395
1477467499.334:    252 149  19  395
1477467499.349:    185 149  19  395
1477467499.350:     98 149  19  395
1477467499.351:     -7 149  19  395
1477467499.352:   -107 149  19  395
1477467499.353:   -186 149  19  395
1477467499.353:   -253 149  19  395
1477467499.354:   -326 149  19  395
1477467499.355:   -415 149  19  395
1477467499.358:   -509 149  19  395
1477467499.358:   -596 149  19  395
1477467499.381:   -674 149  19  395
1477467499.382:   -750 149  19  395
1477467499.382:   -830 149  19  395
1477467499.383:   -904 149  19  395
1477467499.384:   -964 149  19  395
1477467499.385:  -1013 149  19  395
1477467499.385:  -1061 149  19  395
1477467499.386:  -1114 149  19  395
1477467499.387:  -1164 149  19  395
1477467499.387:  -1206 149  19  395
1477467499.388:  -1243 149  19  395
1477467499.388:  -1275 149  19  395
1477467499.389:  -1295 149  19  395
1477467499.390:  -1293 149  19  395
1477467499.390:  -1285 149  19  395
1477467499.391:  -1299 149  19  395
1477467499.391:  -1346 149  19  395
1477467499.391:  -1397 149  19  395
1477467499.391:  -1417 149  19  395
1477467499.392:  -1407 149  19  395
1477467499.392:  -1402 149  19  395
1477467499.393:  -1431 149  19  395
1477467499.397:  -1482 149  19  395
1477467499.398:  -1516 149  19  395
1477467499.413:  -1516 149  19  395
1477467499.483:  -1496 149  19  395
1477467499.491:  -1478 149  19  395
1477467499.491:  -1468 149  19  395
1477467499.491:  -1461 149  19  395
1477467499.491:  -1456 149  19  395
1477467499.491:  -1453 149  19  395
1477467499.491:  -1444 149  19  395
1477467499.492:  -1424 149  19  395
1477467499.492:  -1401 149  19  395
1477467499.492:  -1389 149  19  395
1477467499.492:  -1396 149  19  395
1477467499.493:  -1416 149  19  395
1477467499.493:  -1437 149  19  395
1477467499.493:  -1456 149  19  395
1477467499.493:  -1470 149  19  395
1477467499.493:  -1470 149  19  395
1477467499.493:  -1449 149  19  395
1477467499.493:  -1423 149  19  395
1477467499.494:  -1415 149  19  395
1477467499.494:  -1431 149  19  395
1477467499.494:  -1452 149  19  395
1477467499.494:  -1459 149  19  395
1477467499.494:  -1458 149  19  395
1477467499.494:  -1476 149  19  395
1477467499.495:  -1518 149  19  395
1477467499.495:  -1560 149  19  395
1477467499.495:  -1570 149  19  395
1477467499.495:  -1542 149  19  395
1477467499.495:  -1499 149  19  395
1477467499.495:  -1460 149  19  395
1477467499.495:  -1424 149  19  395
1477467499.495:  -1379 149  19  395
1477467499.496:  -1327 149  19  395
1477467499.496:  -1280 149  19  395
1477467499.496:  -1245 149  19  395
1477467499.496:  -1221 149  19  395
1477467499.496:  -1203 149  19  395
1477467499.496:  -1191 149  19  395
1477467499.496:  -1188 149  19  395
1477467499.497:  -1194 149  19  395
1477467499.497:  -1207 149  19  395
1477467499.497:  -1229 149  19  395
1477467499.497:  -1271 149  19  395
1477467499.497:  -1331 149  19  395
1477467499.498:  -1393 149  19  395
1477467499.498:  -1438 149  19  395
1477467499.498:  -1456 149  19  395
1477467499.498:  -1425 149  19  395
1477467499.499:  -1309 149  19  395
1477467499.499:  -1074 152  20  397
1477467499.503:   -720 152  20  397
1477467499.517:   -291 152  20  397
1477467499.518:    166 152  20  397
1477467499.519:    634 152  20  397
1477467499.519:   1131 152  20  397
1477467499.519:   1661 152  20  397
1477467499.520:   2168 152  20  397
1477467499.520:   2540 152  20  397
1477467499.520:   2664 152  20  397
1477467499.520:   2488 152  20  397
1477467499.523:   2052 152  20  397
1477467499.523:   1442 152  20  397
1477467499.529:    721 152  20  397
1477467499.530:   -113 152  20  397
1477467499.531:  -1085 152  20  397
1477467499.532:  -2151 152  20  397
1477467499.533:  -3173 152  20  397
1477467499.534:  -3979 152  20  397
1477467499.538:  -4488 152  20  397
1477467499.541:  -4735 152  20  397
1477467499.542:  -4805 152  20  397
1477467499.569:  -4739 152  20  397
1477467499.570:  -4521 152  20  397
1477467499.571:  -4145 152  20  397
1477467499.572:  -3670 152  20  397
1477467499.576:  -3199 152  20  397
1477467499.577:  -2807 152  20  397
1477467499.577:  -2501 152  20  397
1477467499.577:  -2255 152  20  397
1477467499.578:  -2052 152  20  397
1477467499.578:  -1901 152  20  397
1477467499.578:  -1817 152  20  397
1477467499.578:  -1785 152  20  397
1477467499.578:  -1765 152  20  397
1477467499.579:  -1726 152  20  397
1477467499.579:  -1666 152  20  397
1477467499.579:  -1606 152  20  397
1477467499.579:  -1566 152  20  397
1477467499.579:  -1537 152  20  397
1477467499.593:  -1501 152  20  397
1477467499.593:  -1452 152  20  397
1477467499.594:  -1408 152  20  397
1477467499.594:  -1389 152  20  397
1477467499.594:  -1392 152  20  397
1477467499.595:  -1392 152  20  397
1477467499.595:  -1372 152  20  397
1477467499.596:  -1340 152  20  397
1477467499.596:  -1314 152  20  397
1477467499.596:  -1305 152  20  397
1477467499.597:  -1308 152  20  397
1477467499.600:  -1308 152  20  397
1477467499.600:  -1294 152  20  397
1477467499.602:  -1266 152  20  397
1477467499.612:  -1239 152  20  397
1477467499.612:  -1229 152  20  397
1477467499.613:  -1234 152  20  397
1477467499.614:  -1237 152  20  397
1477467499.615:  -1219 152  20  397
1477467499.615:  -1178 152  20  397
1477467499.620:  -1130 152  20  397
1477467499.622:  -1090 152  20  397
1477467499.630:  -1054 152  20  397
1477467499.630:  -1006 152  20  397
1477467499.630:   -947 152  20  397
1477467499.630:   -888 152  20  397
1477467499.630:   -840 152  20  397
1477467499.638:   -804 152  20  397
1477467499.650:   -776 152  20  397
1477467499.650:   -753 152  20  397
1477467499.650:   -737 152  20  397
1477467499.650:   -726 152  20  397
1477467499.650:   -715 152  20  397
1477467499.650:   -705 152  20  397
1477467499.650:   -700 152  20  397
1477467499.651:   -702 152  20  397
1477467499.651:   -706 152  20  397
1477467499.651:   -700 152  20  397
1477467499.651:   -677 152  20  397
1477467499.653:   -641 152  20  397
1477467499.654:   -603 152  20  397
1477467499.660:   -572 152  20  397
1477467499.660:   -544 152  20  397
1477467499.664:   -507 152  20  397
1477467499.665:   -458 152  20  397
1477467499.666:   -412 152  20  397
1477467499.668:   -387 152  20  397
1477467499.668:   -386 152  20  397
1477467499.688:   -384 152  20  397
1477467499.688:   -353 152  20  397
1477467499.688:   -287 152  20  397
1477467499.688:   -213 152  20  397
1477467499.688:   -159 152  20  397
1477467499.688:   -124 152  20  397
1477467499.688:    -81 152  20  397
1477467499.689:    -15 152  20  397
1477467499.689:     55 152  20  397
1477467499.689:     98 152  20  397
1477467499.690:    109 152  20  397
1477467499.692:    118 152  20  397
1477467499.696:    151 152  20  397
1477467499.696:    194 152  20  397
1477467499.697:    214 152  20  397
1477467499.700:    198 152  20  397
1477467499.706:    175 152  20  397
1477467499.706:    173 152  20  397
1477467499.715:    179 152  20  397
1477467499.716:    155 152  20  397
1477467499.716:     86 152  20  397
1477467499.716:      0 152  20  397
1477467499.716:    -66 152  20  397
1477467499.717:   -114 152  20  397
1477467499.717:   -177 152  20  397
1477467499.719:   -274 152  20  397
1477467499.721:   -391 152  20  397
1477467499.723:   -497 152  20  397
1477467499.729:   -584 152  20  397
1477467499.729:   -675 152  20  397
1477467499.733:   -783 152  20  397
1477467499.734:   -891 152  20  397
1477467499.734:   -967 152  20  397
1477467499.738:  -1002 152  20  397
1477467499.739:  -1017 152  20  397
1477467499.739:  -1048 152  20  397
1477467499.742:  -1106 152  20  397
1477467499.743:  -1174 152  20  397
1477467499.746:  -1234 152  20  397
1477467499.749:  -1291 152  20  397
1477467499.759:  -1359 152  20  397
1477467499.759:  -1438 152  20  397
1477467499.759:  -1503 152  20  397
1477467499.759:  -1535 152  20  397
1477467499.759:  -1543 152  20  397
1477467499.760:  -1565 152  20  397
1477467499.761:  -1619 152  20  397
1477467499.765:  -1681 152  20  397
1477467499.765:  -1712 152  20  397
1477467499.767:  -1704 152  20  397
1477467499.769:  -1690 152  20  397
1477467499.770:  -1707 152  20  397
1477467499.781:  -1750 152  20  397
1477467499.781:  -1785 152  20  397
1477467499.781:  -1784 152  20  397
1477467499.781:  -1758 152  20  397
1477467499.785:  -1734 152  20  397
1477467499.785:  -1730 152  20  397
1477467499.788:  -1738 152  20  397
1477467499.788:  -1746 152  20  397
1477467499.789:  -1750 152  20  397
1477467499.790:  -1754 152  20  397
1477467499.792:  -1761 152  20  397
1477467499.794:  -1762 152  20  397
1477467499.797:  -1744 152  20  397
1477467499.798:  -1709 152  20  397
1477467499.836:  -1672 152  20  397
1477467500.034:  -1646 152  20  397
1477467500.044:  -1638 152  20  397
1477467500.045:  -1634 152  20  397
1477467500.045:  -1627 152  20  397
1477467500.046:  -1622 152  20  397
1477467500.046:  -1625 152  20  397
1477467500.047:  -1635 152  20  397
1477467500.047:  -1642 152  20  397
1477467500.047:  -1640 152  20  397
1477467500.048:  -1638 152  20  397
1477467500.048:  -1642 152  20  397
1477467500.048:  -1651 152  20  397
1477467500.049:  -1653 152  20  397
1477467500.049:  -1642 152  20  397
1477467500.050:  -1619 152  20  397
1477467500.050:  -1590 152  20  397
1477467500.050:  -1557 152  20  397
1477467500.051:  -1532 152  20  397
1477467500.051:  -1519 152  20  397
1477467500.051:  -1515 152  20  397
1477467500.052:  -1506 152  20  397
1477467500.052:  -1485 152  20  397
1477467500.052:  -1465 152  20  397
1477467500.065:  -1466 152  20  397
1477467500.066:  -1489 152  20  397
1477467500.067:  -1509 152  20  397
1477467500.067:  -1504 152  20  397
1477467500.069:  -1481 152  20  397
1477467500.069:  -1458 152  20  397
1477467500.069:  -1437 152  20  397
1477467500.070:  -1411 152  20  397
1477467500.073:  -1382 152  20  397
1477467500.079:  -1369 152  20  397
1477467500.094:  -1384 152  20  397
1477467500.094:  -1409 152  20  397
1477467500.094:  -1406 152  20  397
1477467500.094:  -1363 152  20  397
1477467500.095:  -1310 152  20  397
1477467500.095:  -1291 152  20  397
1477467500.095:  -1323 152  20  397
1477467500.095:  -1380 152  20  397
1477467500.096:  -1422 152  20  397
1477467500.096:  -1440 152  20  397
1477467500.097:  -1462 152  20  397
1477467500.097:  -1520 152  20  397
1477467500.098:  -1613 152  20  397
1477467500.098:  -1700 152  20  397
1477467500.098:  -1726 152  20  397
1477467500.098:  -1660 152  20  397
1477467500.098:  -1497 152  20  397
1477467500.098:  -1234 152  20  397
1477467500.099:   -862 152  20  397
1477467500.099:   -385 152  20  397
1477467500.099:    155 152  20  397
1477467500.099:    697 152  20  397
1477467500.099:   1201 152  20  397
1477467500.099:   1679 152  20  397
1477467500.100:   2139 152  20  397
1477467500.100:   2525 152  20  397
1477467500.100:   2697 152  20  397
1477467500.100:   2536 152  20  397
1477467500.100:   2042 152  20  397
1477467500.100:   1344 152  20  397
1477467500.101:    576 152  20  397
1477467500.101:   -243 152  20  397
1477467500.101:  -1184 152  20  397
1477467500.101:  -2260 152  20  397
1477467500.101:  -3328 152  20  397
1477467500.101:  -4179 152  20  397
1477467500.102:  -4705 152  20  397
1477467500.102:  -4971 152  20  397
1477467500.102:  -5097 152  20  397
1477467500.102:  -5114 152  20  397
1477467500.102:  -4957 152  20  397
1477467500.102:  -4595 152  20  397
1477467500.103:  -4113 152  20  397
1477467500.103:  -3636 152  20  397
1477467500.103:  -3216 152  20  397
1477467500.103:  -2820 152  20  397
1477467500.103:  -2417 152  20  397
1477467500.103:  -2046 152  20  397
1477467500.104:  -1769 152  20  397
1477467500.104:  -1590 152  20  397
1477467500.104:  -1456 152  20  397
1477467500.104:  -1332 152  20  397
1477467500.104:  -1242 152  20  397
1477467500.104:  -1222 152  20  397
1477467500.105:  -1251 152  20  397
1477467500.105:  -1273 152  20  397
1477467500.105:  -1258 152  20  397
1477467500.108:  -1233 152  20  397
1477467500.109:  -1242 152  20  397
1477467500.110:  -1287 152  20  397
1477467500.111:  -1327 152  20  397
1477467500.111:  -1323 152  20  397
1477467500.111:  -1273 152  20  397
1477467500.112:  -1209 152  20  397
1477467500.112:  -1159 152  20  397
1477467500.113:  -1133 152  20  397
1477467500.113:  -1118 152  20  397
1477467500.114:  -1105 152  20  397
1477467500.135:  -1096 152  20  397
1477467500.136:  -1100 152  20  397
1477467500.138:  -1125 152  20  397
1477467500.140:  -1164 152  20  397
1477467500.140:  -1198 152  20  397
1477467500.141:  -1207 152  20  397
1477467500.142:  -1187 152  20  397
1477467500.142:  -1153 152  20  397
1477467500.143:  -1124 152  20  397
1477467500.145:  -1105 152  20  397
1477467500.147:  -1084 152  20  397
1477467500.147:  -1050 152  20  397
1477467500.148:  -1015 152  20  397
1477467500.148:  -1004 152  20  397
1477467500.148:  -1022 152  20  397
1477467500.148:  -1045 152  20  397
1477467500.149:  -1042 152  20  397
1477467500.149:  -1007 152  20  397
1477467500.149:   -969 152  20  397
1477467500.149:   -950 152  20  397
1477467500.150:   -941 152  20  397
1477467500.150:   -918 152  20  397
1477467500.150:   -872 152  20  397
1477467500.150:   -827 152  20  397
1477467500.164:   -806 152  20  397
1477467500.164:   -798 141  18  422
1477467500.164:   -774 141  18  422
1477467500.164:   -725 141  18  422
1477467500.165:   -672 141  18  422
1477467500.166:   -642 141  18  422
1477467500.167:   -628 141  18  422
1477467500.167:   -601 141  18  422
1477467500.168:   -548 141  18  422
1477467500.169:   -486 141  18  422
1477467500.169:   -443 141  18  422
1477467500.170:   -419 141  18  422
1477467500.170:   -389 141  18  422
1477467500.171:   -332 141  18  422
1477467500.172:   -255 141  18  422
1477467500.172:   -179 141  18  422
1477467500.189:   -115 141  18  422
1477467500.190:    -57 141  18  422
1477467500.191:      0 141  18  422
1477467500.191:     52 141  18  422
1477467500.192:     89 141  18  422
1477467500.192:    115 141  18  422
1477467500.193:    144 141  18  422
1477467500.194:    182 141  18  422
1477467500.194:    220 141  18  422
1477467500.195:    250 141  18  422
1477467500.196:    267 141  18  422
1477467500.196:    273 141  18  422
1477467500.197:    270 141  18  422
1477467500.197:    257 141  18  422
1477467500.198:    239 141  18  422
1477467500.198:    225 141  18  422
1477467500.198:    218 141  18  422
1477467500.198:    210 141  18  422
1477467500.198:    188 141  18  422
1477467500.199:    149 141  18  422
1477467500.199:    105 141  18  422
1477467500.199:     66 141  18  422
1477467500.199:     26 141  18  422
1477467500.199:    -33 141  18  422
1477467500.200:   -127 141  18  422
1477467500.200:   -244 141  18  422
1477467500.200:   -353 141  18  422
1477467500.200:   -432 141  18  422
1477467500.200:   -482 141  18  422
1477467500.201:   -526 141  18  422
1477467500.201:   -584 141  18  422
1477467500.201:   -653 141  18  422
1477467500.201:   -715 141  18  422
1477467500.201:   -764 141  18  422
1477467500.202:   -810 141  18  422
1477467500.202:   -864 141  18  422
1477467500.202:   -922 141  18  422
1477467500.202:   -970 141  18  422
1477467500.202:  -1006 141  18  422
1477467500.202:  -1049 141  18  422
1477467500.203:  -1111 141  18  422
1477467500.203:  -1171 141  18  422
1477467500.203:  -1198 141  18  422
1477467500.203:  -1182 141  18  422
1477467500.204:  -1155 141  18  422
1477467500.204:  -1154 141  18  422
1477467500.204:  -1184 141  18  422
1477467500.204:  -1209 141  18  422
1477467500.204:  -1195 141  18  422
1477467500.204:  -1141 141  18  422
1477467500.205:  -1081 141  18  422
1477467500.207:  -1050 141  18  422
1477467500.227:  -1055 141  18  422
1477467500.228:  -1075 141  18  422
1477467500.229:  -1088 141  18  422
1477467500.229:  -1085 141  18  422
1477467500.230:  -1073 141  18  422
1477467500.231:  -1057 141  18  422
1477467500.232:  -1036 141  18  422
1477467500.234:  -1009 141  18  422
1477467500.234:   -978 141  18  422
1477467500.235:   -953 141  18  422
1477467500.236:   -939 141  18  422
1477467500.236:   -940 141  18  422
1477467500.248:   -959 141  18  422
1477467500.248:  -1003 141  18  422
1477467500.249:  -1076 141  18  422
1477467500.249:  -1176 141  18  422
1477467500.249:  -1284 141  18  422
1477467500.250:  -1373 141  18  422
1477467500.250:  -1428 141  18  422
1477467500.250:  -1457 141  18  422
1477467500.250:  -1479 141  18  422
1477467500.250:  -1505 141  18  422
1477467500.251:  -1521 141  18  422
1477467500.251:  -1509 141  18  422
1477467500.251:  -1469 141  18  422
1477467500.251:  -1430 141  18  422
1477467500.252:  -1424 141  18  422
1477467500.252:  -1443 141  18  422
1477467500.252:  -1453 141  18  422
1477467500.252:  -1438 141  18  422
1477467500.252:  -1417 141  18  422
1477467500.253:  -1428 141  18  422
1477467500.253:  -1474 141  18  422
1477467500.253:  -1524 141  18  422
1477467500.268:  -1545 141  18  422
1477467500.269:  -1543 141  18  422
1477467500.269:  -1541 141  18  422
1477467500.270:  -1545 141  18  422
1477467500.273:  -1534 141  18  422
1477467500.274:  -1495 141  18  422
1477467500.274:  -1452 141  18  422
1477467500.275:  -1442 141  18  422
1477467500.276:  -1471 141  18  422
1477467500.276:  -1504 141  18  422
1477467500.287:  -1509 141  18  422
1477467500.287:  -1491 141  18  422
1477467500.288:  -1479 141  18  422
1477467500.289:  -1489 141  18  422
1477467500.289:  -1504 141  18  422
1477467500.290:  -1495 141  18  422
1477467500.290:  -1456 141  18  422
1477467500.290:  -1408 141  18  422
1477467500.290:  -1375 141  18  422
1477467500.290:  -1361 141  18  422
1477467500.290:  -1354 141  18  422
1477467500.293:  -1344 141  18  422
1477467500.293:  -1336 141  18  422
1477467500.293:  -1340 141  18  422
1477467500.298:  -1344 141  18  422
1477467500.298:  -1331 141  18  422
1477467500.307:  -1302 141  18  422
1477467500.307:  -1279 141  18  422
1477467500.307:  -1285 141  18  422
1477467500.307:  -1307 141  18  422
1477467500.308:  -1315 141  18  422
1477467500.313:  -1295 141  18  422
1477467500.313:  -1268 141  18  422
1477467500.315:  -1262 141  18  422
1477467500.326:  -1270 141  18  422
1477467500.326:  -1262 141  18  422
1477467500.327:  -1225 141  18  422
1477467500.327:  -1187 141  18  422
1477467500.327:  -1177 141  18  422
1477467500.327:  -1188 141  18  422
1477467500.329:  -1189 141  18  422
1477467500.330:  -1181 141  18  422
1477467500.335:  -1207 141  18  422
1477467500.337:  -1301 141  18  422
1477467500.338:  -1446 141  18  422
1477467500.340:  -1589 141  18  422
1477467500.342:  -1709 141  18  422
1477467500.342:  -1827 141  18  422
1477467500.348:  -1963 141  18  422
1477467500.349:  -2087 141  18  422
1477467500.352:  -2139 141  18  422
1477467500.352:  -2070 141  18  422
1477467500.353:  -1857 141  18  422
1477467500.354:  -1489 141  18  422
1477467500.369:   -962 141  18  422
1477467500.370:   -304 141  18  422
1477467500.371:    414 141  18  422
1477467500.372:   1115 141  18  422
1477467500.373:   1774 141  18  422
1477467500.373:   2409 141  18  422
1477467500.374:   3007 141  18  422
1477467500.374:   3462 141  18  422
1477467500.375:   3610 141  18  422
1477467500.376:   3369 141  18  422
1477467500.377:   2816 141  18  422
1477467500.378:   2124 141  18  422
1477467500.387:   1400 141  18  422
1477467500.389:    595 141  18  422
1477467500.390:   -400 141  18  422
1477467500.391:  -1566 141  18  422
1477467500.392:  -2694 141  18  422
1477467500.392:  -3540 141  18  422
1477467500.394:  -4025 141  18  422
1477467500.394:  -4266 141  18  422
1477467500.395:  -4404 141  18  422
1477467500.397:  -4454 141  18  422
1477467500.397:  -4332 141  18  422
1477467500.399:  -4001 141  18  422
1477467500.409:  -3540 141  18  422
1477467500.410:  -3065 141  18  422
1477467500.411:  -2637 141  18  422
1477467500.412:  -2254 141  18  422
1477467500.412:  -1918 141  18  422
1477467500.414:  -1656 141  18  422
1477467500.415:  -1476 141  18  422
1477467500.417:  -1341 141  18  422
1477467500.427:  -1214 141  18  422
1477467500.428:  -1109 141  18  422
1477467500.428:  -1060 141  18  422
1477467500.429:  -1069 141  18  422
1477467500.431:  -1098 141  18  422
1477467500.432:  -1109 141  18  422
1477467500.433:  -1109 141  18  422
1477467500.433:  -1120 141  18  422
1477467500.436:  -1139 141  18  422
1477467500.437:  -1146 141  18  422
1477467500.449:  -1135 141  18  422
1477467500.450:  -1123 141  18  422
1477467500.451:  -1121 141  18  422
1477467500.451:  -1116 141  18  422
1477467500.452:  -1094 141  18  422
1477467500.453:  -1064 141  18  422
1477467500.453:  -1051 141  18  422
1477467500.454:  -1062 141  18  422
1477467500.467:  -1072 141  18  422
1477467500.570:  -1060 141  18  422
1477467500.571:  -1039 141  18  422
1477467500.571:  -1041 141  18  422
1477467500.571:  -1069 141  18  422
1477467500.571:  -1087 141  18  422
1477467500.572:  -1064 141  18  419
1477467500.572:  -1017 141  18  419
1477467500.572:   -996 141  18  419
1477467500.572:  -1020 141  18  419
1477467500.573:  -1058 141  18  419
1477467500.573:  -1059 141  18  419
1477467500.573:  -1012 141  18  419
1477467500.573:   -952 141  18  419
1477467500.573:   -921 141  18  419
1477467500.574:   -919 141  18  419
1477467500.574:   -918 141  18  419
1477467500.574:   -898 141  18  419
1477467500.587:   -871 141  18  419
1477467500.588:   -857 141  18  419
1477467500.589:   -849 141  18  419
1477467500.590:   -829 141  18  419
1477467500.591:   -787 141  18  419
1477467500.591:   -733 141  18  419
1477467500.592:   -683 141  18  419
1477467500.592:   -641 141  18  419
1477467500.593:   -597 141  18  419
1477467500.594:   -541 141  18  419
1477467500.606:   -477 141  18  419
1477467500.606:   -417 141  18  419
1477467500.606:   -367 141  18  419
1477467500.606:   -328 141  18  419
1477467500.607:   -289 141  18  419
1477467500.607:   -237 141  18  419
1477467500.607:   -169 141  18  419
1477467500.607:    -95 141  18  419
1477467500.607:    -39 141  18  419
1477467500.607:    -15 141  18  419
1477467500.607:     -4 141  18  419
1477467500.608:     25 141  18  419
1477467500.608:     87 141  18  419
1477467500.608:    154 141  18  419
1477467500.608:    193 141  18  419
1477467500.608:    200 141  18  419
1477467500.608:    211 141  18  419
1477467500.608:    253 141  18  419
1477467500.608:    307 141  18  419
1477467500.609:    327 141  18  419
1477467500.609:    299 141  18  419
1477467500.609:    256 141  18  419
1477467500.609:    241 141  18  419
1477467500.609:    259 141  18  419
1477467500.609:    279 141  18  419
1477467500.610:    278 141  18  419
1477467500.610:    269 141  18  419
1477467500.610:    282 141  18  419
1477467500.610:    320 141  18  419
1477467500.610:    359 141  18  419
1477467500.610:    378 141  18  419
1477467500.610:    380 141  18  419
1477467500.611:    377 141  18  419
1477467500.611:    371 141  18  419
1477467500.611:    351 141  18  419
1477467500.611:    308 141  18  419
1477467500.611:    254 141  18  419
1477467500.611:    209 141  18  419
1477467500.611:    178 141  18  419
1477467500.612:    142 141  18  419
1477467500.612:     85 141  18  419
1477467500.612:     11 141  18  419
1477467500.612:    -52 141  18  419
1477467500.612:    -88 141  18  419
1477467500.612:   -107 141  18  419
1477467500.612:   -139 141  18  419
1477467500.612:   -201 141  18  419
1477467500.613:   -279 141  18  419
1477467500.613:   -350 141  18  419
1477467500.614:   -405 141  18  419
1477467500.614:   -458 141  18  419
1477467500.614:   -520 141  18  419
1477467500.614:   -586 141  18  419
1477467500.619:   -641 141  18  419
1477467500.619:   -682 141  18  419
1477467500.619:   -722 141  18  419
1477467500.619:   -766 141  18  419
1477467500.620:   -814 141  18  419
1477467500.623:   -867 141  18  419
1477467500.624:   -936 141  18  419
1477467500.635:  -1031 141  18  419
1477467500.636:  -1142 141  18  419
1477467500.639:  -1243 141  18  419
1477467500.640:  -1320 141  18  419
1477467500.640:  -1382 141  18  419
1477467500.641:  -1440 141  18  419
1477467500.648:  -1487 141  18  419
1477467500.648:  -1508 141  18  419
1477467500.649:  -1501 141  18  419
1477467500.649:  -1488 141  18  419
1477467500.649:  -1490 141  18  419
1477467500.649:  -1506 141  18  419
1477467500.653:  -1516 141  18  419
1477467500.653:  -1510 141  18  419
1477467500.655:  -1498 141  18  419
1477467500.655:  -1495 141  18  419
1477467500.657:  -1503 141  18  419
1477467500.659:  -1508 141  18  419
1477467500.671:  -1499 141  18  419
1477467500.672:  -1480 141  18  419
1477467500.673:  -1462 141  18  419
1477467500.674:  -1451 141  18  419
1477467500.674:  -1447 141  18  419
1477467500.675:  -1448 141  18  419
1477467500.675:  -1451 141  18  419
1477467500.679:  -1455 141  18  419
1477467500.692:  -1453 141  18  419
1477467500.692:  -1448 141  18  419
1477467500.693:  -1441 141  18  419
1477467500.693:  -1437 141  18  419
1477467500.694:  -1436 141  18  419
1477467500.694:  -1436 141  18  419
1477467500.695:  -1436 141  18  419
1477467500.695:  -1436 141  18  419
1477467500.697:  -1428 141  18  419
1477467500.697:  -1405 141  18  419
1477467500.698:  -1369 141  18  419
1477467500.700:  -1332 141  18  419
1477467500.702:  -1312 141  18  419
1477467500.706:  -1310 141  18  419
1477467500.709:  -1315 141  18  419
1477467500.710:  -1313 141  18  419
1477467500.711:  -1298 141  18  419
1477467500.711:  -1277 141  18  419
1477467500.713:  -1260 141  18  419
1477467500.722:  -1253 141  18  419
1477467500.758:  -1250 141  18  419
1477467500.758:  -1239 141  18  419
1477467500.759:  -1206 141  18  419
1477467500.759:  -1154 141  18  419
1477467500.759:  -1104 141  18  419
1477467500.760:  -1083 141  18  419
1477467500.760:  -1097 141  18  419
1477467500.760:  -1122 141  18  419
1477467500.760:  -1130 141  18  419
1477467500.760:  -1116 141  18  419
1477467500.761:  -1100 141  18  419
1477467500.761:  -1105 141  18  419
1477467500.761:  -1125 141  18  419
1477467500.761:  -1142 141  18  419
1477467500.761:  -1150 141  18  419
1477467500.761:  -1162 141  18  419
1477467500.762:  -1187 141  18  419
1477467500.762:  -1213 141  18  419
1477467500.762:  -1221 141  18  419
1477467500.763:  -1212 141  18  419
1477467500.764:  -1203 141  18  419
1477467500.764:  -1193 141  18  419
1477467500.764:  -1165 141  18  419
1477467500.766:  -1105 141  18  419
1477467500.768:  -1033 141  18  419
1477467500.769:   -981 141  18  419
1477467500.769:   -955 141  18  419
1477467500.771:   -931 141  18  419
1477467500.775:   -893 141  18  419
1477467500.775:   -854 141  18  419
1477467500.776:   -840 141  18  419
1477467500.780:   -850 141  18  419
1477467500.792:   -858 141  18  419
1477467500.793:   -847 141  18  419
1477467500.794:   -835 141  18  419
1477467500.794:   -849 141  18  419
1477467500.795:   -879 141  18  419
1477467500.798:   -887 141  18  419
1477467500.798:   -851 141  18  419
1477467500.799:   -795 141  18  419
1477467500.812:   -765 141  18  419
1477467500.814:   -775 141  18  419
1477467500.817:   -790 141  18  419
1477467500.817:   -774 141  18  419
1477467500.818:   -732 141  18  419
1477467500.819:   -707 141  18  419
1477467500.819:   -733 141  18  419
1477467500.820:   -802 141  18  419
1477467500.832:   -872 141  18  419
1477467500.832:   -911 141  18  419
1477467500.833:   -923 141  18  419
1477467500.833:   -940 141  18  419
1477467500.833:   -983 141  18  419
1477467500.833:  -1048 141  18  419
1477467500.834:  -1116 141  18  419
1477467500.834:  -1169 141  18  419
1477467500.834:  -1208 141  18  419
1477467500.834:  -1245 141  18  419
1477467500.834:  -1290 141  18  419
1477467500.835:  -1343 141  18  419
1477467500.835:  -1387 141  18  419
1477467500.836:  -1398 141  18  419
1477467500.838:  -1372 141  18  419
1477467500.842:  -1329 141  18  419
1477467500.853:  -1302 141  18  419
1477467500.853:  -1306 141  18  419
1477467500.853:  -1322 141  18  419
1477467500.853:  -1320 141  18  419
1477467500.853:  -1293 141  18  419
1477467500.853:  -1268 141  18  419
1477467500.857:  -1274 141  18  419
1477467500.858:  -1302 141  18  419
1477467500.858:  -1319 141  18  419
1477467500.860:  -1299 141  18  419
1477467500.861:  -1261 141  18  419
1477467500.866:  -1242 141  18  419
1477467500.874:  -1261 141  18  419
1477467500.876:  -1295 141  18  419
1477467500.877:  -1306 141  18  419
1477467500.878:  -1282 141  18  419
1477467500.879:  -1243 141  18  419
1477467500.880:  -1218 141  18  419
1477467500.880:  -1213 141  18  419
1477467500.882:  -1214 141  18  419
1477467500.884:  -1198 141  18  419
1477467500.884:  -1167 141  18  419
1477467500.886:  -1143 141  18  419
1477467500.887:  -1145 141  18  419
1477467500.888:  -1172 141  18  419
1477467500.890:  -1201 141  18  419
1477467500.904:  -1207 141  18  419
1477467500.904:  -1187 141  18  419
1477467500.905:  -1165 141  18  419
1477467500.905:  -1162 141  18  419
1477467500.905:  -1171 141  18  419
1477467500.905:  -1165 141  18  419
1477467500.908:  -1134 141  18  419
1477467500.908:  -1095 141  18  419
1477467500.911:  -1077 141  18  419
1477467500.912:  -1082 141  18  419
1477467500.913:  -1094 141  18  419
1477467500.915:  -1102 141  18  419
1477467500.916:  -1125 141  18  419
1477467500.918:  -1187 141  18  419
1477467500.928:  -1294 141  18  419
1477467500.928:  -1433 141  18  419
1477467500.928:  -1592 141  18  419
1477467500.929:  -1766 141  18  419
1477467500.929:  -1926 141  18  419
1477467500.931:  -2023 141  18  419
1477467500.932:  -2022 141  18  419
1477467500.934:  -1905 141  18  419
1477467500.939:  -1654 141  18  419
1477467500.941:  -1234 141  18  419
1477467500.949:   -635 141  18  419
1477467500.950:     85 141  18  419
1477467500.950:    832 141  18  419
1477467500.951:   1551 141  18  419
1477467500.952:   2262 141  18  419
1477467500.953:   2984 141  18  419
1477467500.953:   3629 141  18  419
1477467500.958:   4020 141  18  419
1477467500.961:   4029 141  18  419
1477467500.962:   3687 141  18  419
1477467500.981:   3132 141  18  419
1477467500.981:   2470 141  18  419
1477467500.982:   1689 141  18  419
1477467500.982:    726 141  18  419
1477467500.982:   -414 141  18  419
1477467500.982:  -1609 141  18  419
1477467500.983:  -2678 141  18  419
1477467500.983:  -3489 141  18  419
1477467500.983:  -4015 141  18  419
1477467500.983:  -4312 141  18  419
1477467500.983:  -4458 141  18  419
1477467500.984:  -4495 141  18  419
1477467500.984:  -4417 141  18  419
1477467500.984:  -4198 141  18  419
1477467500.990:  -3841 141  18  419
1477467500.991:  -3394 141  18  419
1477467500.994:  -2930 141  18  419
1477467500.994:  -2517 141  18  419
1477467500.998:  -2178 141  18  419
1477467500.998:  -1902 141  18  419
1477467500.998:  -1654 141  18  419
1477467501.001:  -1410 141  18  419
1477467501.007:  -1178 141  18  419
1477467501.010:   -994 141  18  419
1477467501.010:   -888 141  18  419
1477467501.011:   -854 141  18  419
1477467501.012:   -854 141  18  419
1477467501.014:   -849 141  18  419
1477467501.035:   -843 141  18  419
1477467501.035:   -859 141  18  419
1477467501.036:   -904 141  18  419
1477467501.037:   -957 141  18  419
1477467501.038:   -998 141  18  419
1477467501.039:  -1026 141  18  419
1477467501.039:  -1057 141  18  419
1477467501.040:  -1092 141  18  419
1477467501.041:  -1118 141  18  419
1477467501.041:  -1119 141  18  419
1477467501.066:  -1104 141  18  419
1477467501.067:  -1094 141  18  419
1477467501.069:  -1099 141  18  419
1477467501.070:  -1112 141  18  419
1477467501.070:  -1127 141  18  419
1477467501.070:  -1145 141  18  419
1477467501.070:  -1174 141  18  419
1477467501.071:  -1209 141  18  419
1477467501.072:  -1233 141  18  419
1477467501.073:  -1243 141  18  419
1477467501.073:  -1249 141  18  419
1477467501.073:  -1263 141  18  419
1477467501.074:  -1279 141  18  419
1477467501.074:  -1278 141  18  419
1477467501.074:  -1260 141  18  419
1477467501.074:  -1237 141  18  419
1477467501.075:  -1223 141  18  419
1477467501.076:  -1215 141  18  419
1477467501.076:  -1202 141  18  419
1477467501.077:  -1189 141  18  419
1477467501.078:  -1188 141  18  419
1477467501.078:  -1201 141  18  419
1477467501.089:  -1209 141  18  419
1477467501.090:  -1195 141  18  419
1477467501.091:  -1165 141  18  419
1477467501.093:  -1134 141  18  419
1477467501.093:  -1109 141  18  419
1477467501.094:  -1077 141  18  419
1477467501.094:  -1027 141  18  419
1477467501.095:   -970 141  18  419
1477467501.108:   -922 141  18  419
1477467501.109:   -885 141  18  419
1477467501.109:   -838 141  18  419
1477467501.110:   -763 141  18  419
1477467501.111:   -680 141  18  419
1477467501.111:   -623 141  18  419
1477467501.112:   -602 141  18  419
1477467501.112:   -589 141  18  419
1477467501.113:   -549 141  18  419
1477467501.114:   -477 141  18  419
1477467501.114:   -396 141  18  419
1477467501.128:   -328 141  18  419
1477467501.128:   -268 141  18  419
1477467501.129:   -205 141  18  419
1477467501.130:   -141 141  18  419
1477467501.130:    -95 141  18  419
1477467501.131:    -67 141  18  419
1477467501.132:    -45 141  18  419
1477467501.134:    -18 141  18  419
1477467501.135:      5 141  18  419
1477467501.136:      9 141  18  419
1477467501.137:      4 141  18  419
1477467501.138:     16 141  18  419
1477467501.139:     61 141  18  419
1477467501.175:    121 141  18  419
1477467501.276:    165 141  18  419
1477467501.276:    175 141  18  419
1477467501.276:    157 141  18  419
1477467501.276:    128 141  18  419
1477467501.277:     98 141  18  419
1477467501.277:     77 141  18  419
1477467501.278:     72 141  18  419
1477467501.289:     79 141  18  419
1477467501.289:     83 141  18  419
1477467501.290:     73 141  18  419
1477467501.290:     60 141  18  419
1477467501.290:     64 141  18  419
1477467501.290:     86 141  18  419
1477467501.291:     97 141  18  419
1477467501.291:     69 141  18  419
1477467501.292:      4 141  18  419
1477467501.292:    -69 141  18  419
1477467501.293:   -128 141  18  419
1477467501.293:   -171 141  18  419
1477467501.293:   -214 141  18  419
1477467501.293:   -267 141  18  419
1477467501.293:   -328 141  18  419
1477467501.294:   -390 141  18  419
1477467501.294:   -447 141  18  419
1477467501.294:   -491 141  18  419
1477467501.295:   -517 141  18  419
1477467501.295:   -527 141  18  419
1477467501.295:   -536 141  18  419
1477467501.296:   -564 141  18  419
1477467501.296:   -617 141  18  419
1477467501.297:   -678 141  18  419
1477467501.309:   -721 141  18  419
1477467501.309:   -738 141  18  419
1477467501.310:   -748 141  18  419
1477467501.310:   -780 141  18  419
1477467501.310:   -845 141  18  419
1477467501.311:   -922 141  18  419
1477467501.312:   -982 141  18  419
1477467501.312:  -1020 141  18  419
1477467501.312:  -1062 141  18  419
1477467501.313:  -1131 141  18  419
1477467501.313:  -1226 141  18  419
1477467501.313:  -1324 141  18  419
1477467501.314:  -1406 141  18  419
1477467501.314:  -1467 141  18  419
1477467501.315:  -1517 141  18  419
1477467501.315:  -1555 141  18  419
1477467501.315:  -1575 141  18  419
1477467501.316:  -1572 141  18  419
1477467501.318:  -1558 141  18  419
1477467501.318:  -1549 141  18  419
1477467501.318:  -1556 141  18  419
1477467501.318:  -1584 141  18  419
1477467501.319:  -1621 141  18  419
1477467501.319:  -1651 141  18  419
1477467501.320:  -1665 141  18  419
1477467501.321:  -1668 141  18  419
1477467501.321:  -1676 141  18  419
1477467501.321:  -1693 141  18  419
1477467501.322:  -1713 141  18  419
1477467501.322:  -1720 141  18  419
1477467501.322:  -1716 141  18  419
1477467501.323:  -1713 141  18  419
1477467501.323:  -1722 141  18  419
1477467501.324:  -1737 141  18  419
1477467501.324:  -1744 141  18  419
1477467501.324:  -1742 141  18  419
1477467501.325:  -1737 141  18  419
1477467501.325:  -1731 141  18  419
1477467501.326:  -1714 141  18  419
1477467501.326:  -1679 141  18  419
1477467501.327:  -1638 141  18  419
1477467501.327:  -1609 141  18  419
1477467501.328:  -1605 141  18  419
1477467501.328:  -1616 141  18  419
1477467501.328:  -1621 141  18  419
1477467501.328:  -1617 141  18  419
1477467501.329:  -1623 141  18  419
1477467501.329:  -1657 141  18  419
1477467501.329:  -1719 136  18  421
1477467501.330:  -1792 136  18  421
1477467501.330:  -1860 136  18  421
1477467501.330:  -1922 136  18  421
1477467501.331:  -1976 136  18  421
1477467501.331:  -1982 136  18  421
1477467501.331:  -1876 136  18  421
1477467501.331:  -1621 136  18  421
1477467501.332:  -1241 136  18  421
1477467501.332:   -791 136  18  421
1477467501.332:   -295 136  18  421
1477467501.334:    274 136  18  421
1477467501.334:    939 136  18  421
1477467501.334:   1660 136  18  421
1477467501.334:   2341 136  18  421
1477467501.335:   2873 136  18  421
1477467501.335:   3172 136  18  421
1477467501.335:   3182 136  18  421
1477467501.336:   2880 136  18  421
1477467501.337:   2291 136  18  421
1477467501.354:   1485 136  18  421
1477467501.360:    532 136  18  421
1477467501.361:   -534 136  18  421
1477467501.361:  -1684 136  18  421
1477467501.362:  -2829 136  18  421
1477467501.362:  -3814 136  18  421
1477467501.364:  -4503 136  18  421
1477467501.365:  -4861 136  18  421
1477467501.365:  -4947 136  18  421
1477467501.366:  -4833 136  18  421
1477467501.376:  -4548 136  18  421
1477467501.376:  -4101 136  18  421
1477467501.376:  -3550 136  18  421
1477467501.377:  -3001 136  18  421
1477467501.377:  -2541 136  18  421
1477467501.377:  -2193 136  18  421
1477467501.378:  -1923 136  18  421
1477467501.378:  -1700 136  18  421
1477467501.378:  -1531 136  18  421
1477467501.379:  -1443 136  18  421
1477467501.380:  -1429 136  18  421
1477467501.381:  -1436 136  18  421
1477467501.383:  -1405 136  18  421
1477467501.384:  -1323 136  18  421
1477467501.393:  -1219 136  18  421
1477467501.393:  -1143 136  18  421
1477467501.394:  -1108 136  18  421
1477467501.394:  -1096 136  18  421
1477467501.394:  -1081 136  18  421
1477467501.394:  -1059 136  18  421
1477467501.399:  -1036 136  18  421
1477467501.401:  -1008 136  18  421
1477467501.403:   -972 136  18  421
1477467501.404:   -942 136  18  421
1477467501.408:   -944 136  18  421
1477467501.408:   -996 136  18  421
1477467501.410:  -1085 136  18  421
1477467501.411:  -1179 136  18  421
1477467501.431:  -1256 136  18  421
1477467501.432:  -1307 136  18  421
1477467501.433:  -1335 136  18  421
1477467501.434:  -1342 136  18  421
1477467501.435:  -1337 136  18  421
1477467501.436:  -1334 136  18  421
1477467501.438:  -1340 136  18  421
1477467501.439:  -1348 136  18  421
1477467501.440:  -1348 136  18  421
1477467501.441:  -1341 136  18  421
1477467501.442:  -1342 136  18  421
1477467501.442:  -1363 136  18  421
1477467501.443:  -1392 136  18  421
1477467501.443:  -1410 136  18  421
1477467501.444:  -1404 136  18  421
1477467501.445:  -1385 136  18  421
1477467501.457:  -1365 136  18  421
1477467501.457:  -1342 136  18  421
1477467501.458:  -1309 136  18  421
1477467501.459:  -1267 136  18  421
1477467501.459:  -1230 136  18  421
1477467501.460:  -1207 136  18  421
1477467501.460:  -1189 136  18  421
1477467501.461:  -1158 136  18  421
1477467501.461:  -1104 136  18  421
1477467501.462:  -1036 136  18  421
1477467501.463:   -970 136  18  421
1477467501.468:   -916 136  18  421
1477467501.474:   -875 136  18  421
1477467501.475:   -842 136  18  421
1477467501.475:   -806 136  18  421
1477467501.475:   -751 136  18  421
1477467501.476:   -668 136  18  421
1477467501.476:   -575 136  18  421
1477467501.482:   -502 136  18  421
1477467501.482:   -463 136  18  421
1477467501.483:   -440 136  18  421
1477467501.485:   -397 136  18  421
1477467501.496:   -321 136  18  421
1477467501.496:   -234 136  18  421
1477467501.497:   -166 136  18  421
1477467501.497:   -124 136  18  421
1477467501.498:    -90 136  18  421
1477467501.499:    -43 136  18  421
1477467501.499:     16 136  18  421
1477467501.504:     69 136  18  421
1477467501.504:     97 136  18  421
1477467501.506:     97 136  18  421
1477467501.516:     87 136  18  421
1477467501.517:     80 136  18  421
1477467501.517:     74 136  18  421
1477467501.517:     57 136  18  421
1477467501.518:     24 136  18  421
1477467501.518:    -15 136  18  421
1477467501.519:    -40 136  18  421
1477467501.520:    -48 136  18  421
1477467501.521:    -61 136  18  421
1477467501.529:   -104 136  18  421
1477467501.536:   -182 136  18  421
1477467501.536:   -275 136  18  421
1477467501.537:   -356 136  18  421
1477467501.537:   -420 136  18  421
1477467501.537:   -477 136  18  421
1477467501.537:   -539 136  18  421
1477467501.538:   -611 136  18  421
1477467501.541:   -687 136  18  421
1477467501.544:   -756 136  18  421
1477467501.544:   -806 136  18  421
1477467501.547:   -834 136  18  421
1477467501.547:   -851 136  18  421
1477467501.548:   -873 136  18  421
1477467501.551:   -906 136  18  421
1477467501.559:   -943 136  18  421
1477467501.559:   -965 136  18  421
1477467501.559:   -967 136  18  421
1477467501.560:   -969 136  18  421
1477467501.561:   -998 136  18  421
1477467501.562:  -1054 136  18  421
1477467501.570:  -1114 136  18  421
1477467501.571:  -1152 136  18  421
1477467501.578:  -1169 136  18  421
1477467501.578:  -1181 136  18  421
1477467501.579:  -1201 136  18  421
1477467501.579:  -1215 136  18  421
1477467501.579:  -1199 136  18  421
1477467501.579:  -1160 136  18  421
1477467501.581:  -1130 136  18  421
1477467501.582:  -1137 136  18  421
1477467501.585:  -1173 136  18  421
1477467501.586:  -1205 136  18  421
1477467501.591:  -1213 136  18  421
1477467501.592:  -1220 136  18  421
1477467501.594:  -1256 136  18  421
1477467501.595:  -1325 136  18  421
1477467501.600:  -1395 136  18  421
1477467501.600:  -1438 136  18  421
1477467501.601:  -1456 136  18  421
1477467501.603:  -1473 136  18  421
1477467501.606:  -1506 136  18  421
1477467501.609:  -1551 136  18  421
1477467501.620:  -1592 136  18  421
1477467501.621:  -1623 136  18  421
1477467501.623:  -1639 136  18  421
1477467501.627:  -1643 136  18  421
1477467501.639:  -1638 136  18  421
1477467501.833:  -1630 136  18  421
1477467501.834:  -1622 136  18  421
1477467501.835:  -1615 136  18  421
1477467501.835:  -1609 136  18  421
1477467501.836:  -1610 136  18  421
1477467501.837:  -1620 136  18  421
1477467501.837:  -1634 136  18  421
1477467501.849:  -1640 136  18  421
1477467501.849:  -1634 136  18  421
1477467501.849:  -1631 136  18  421
1477467501.849:  -1643 136  18  421
1477467501.849:  -1665 136  18  421
1477467501.850:  -1676 136  18  421
1477467501.850:  -1671 136  18  421
1477467501.850:  -1661 136  18  421
1477467501.851:  -1665 136  18  421
1477467501.851:  -1686 136  18  421
1477467501.851:  -1705 136  18  421
1477467501.851:  -1703 136  18  421
1477467501.851:  -1679 136  18  421
1477467501.852:  -1649 136  18  421
1477467501.852:  -1627 136  18  421
1477467501.852:  -1617 136  18  421
1477467501.852:  -1610 136  18  421
1477467501.853:  -1600 136  18  421
1477467501.853:  -1593 136  18  421
1477467501.853:  -1593 136  18  421
1477467501.853:  -1594 136  18  421
1477467501.853:  -1584 136  18  421
1477467501.853:  -1558 136  18  421
1477467501.854:  -1531 136  18  421
1477467501.854:  -1523 136  18  421
1477467501.854:  -1533 136  18  421
1477467501.854:  -1539 136  18  421
1477467501.854:  -1520 136  18  421
1477467501.855:  -1488 136  18  421
1477467501.855:  -1476 136  18  421
1477467501.855:  -1502 136  18  421
1477467501.855:  -1538 136  18  421
1477467501.856:  -1537 136  18  421
1477467501.856:  -1487 136  18  421
1477467501.856:  -1420 136  18  421
1477467501.857:  -1383 136  18  421
1477467501.868:  -1384 136  18  421
1477467501.868:  -1389 136  18  421
1477467501.869:  -1364 136  18  421
1477467501.869:  -1318 136  18  421
1477467501.870:  -1282 136  18  421
1477467501.870:  -1275 136  18  421
1477467501.870:  -1285 136  18  421
1477467501.870:  -1302 136  18  421
1477467501.871:  -1336 136  18  421
1477467501.871:  -1409 136  18  421
1477467501.871:  -1521 136  18  421
1477467501.872:  -1656 136  18  421
1477467501.872:  -1808 136  18  421
1477467501.872:  -1984 136  18  421
1477467501.873:  -2169 136  18  421
1477467501.873:  -2313 136  18  421
1477467501.893:  -2359 136  18  421
1477467501.893:  -2282 136  18  421
1477467501.893:  -2074 136  18  421
1477467501.894:  -1712 136  18  421
1477467501.895:  -1160 136  18  421
1477467501.895:   -430 136  18  421
1477467501.896:    385 136  18  421
1477467501.896:   1181 136  18  421
1477467501.896:   1932 136  18  421
1477467501.898:   2678 136  18  421
1477467501.898:   3412 136  18  421
1477467501.898:   3995 136  18  421
1477467501.899:   4224 136  18  421
1477467501.899:   4009 136  18  421
1477467501.899:   3439 136  18  421
1477467501.900:   2689 136  18  421
1477467501.900:   1859 136  18  421
1477467501.900:    906 136  18  421
1477467501.901:   -240 136  18  421
1477467501.901:  -1535 136  18  421
1477467501.901:  -2789 136  18  421
1477467501.902:  -3779 136  18  421
1477467501.902:  -4409 136  18  421
1477467501.902:  -4744 136  18  421
1477467501.903:  -4915 136  18  421
1477467501.903:  -4987 136  18  421
1477467501.903:  -4929 136  18  421
1477467501.904:  -4698 136  18  421
1477467501.904:  -4316 136  18  421
1477467501.904:  -3870 136  18  421
1477467501.905:  -3442 136  18  421
1477467501.905:  -3064 136  18  421
1477467501.905:  -2740 136  18  421
1477467501.906:  -2474 136  18  421
1477467501.906:  -2269 136  18  421
1477467501.907:  -2101 136  18  421
1477467501.907:  -1947 136  18  421
1477467501.907:  -1804 136  18  421
1477467501.908:  -1697 136  18  421
1477467501.908:  -1645 136  18  421
1477467501.925:  -1628 136  18  421
1477467501.925:  -1607 136  18  421
1477467501.926:  -1567 136  18  421
1477467501.926:  -1525 136  18  421
1477467501.926:  -1499 136  18  421
1477467501.926:  -1495 136  18  421
1477467501.927:  -1499 136  18  421
1477467501.927:  -1499 136  18  421
1477467501.928:  -1481 136  18  421
1477467501.928:  -1445 136  18  421
1477467501.928:  -1398 136  18  421
1477467501.929:  -1358 136  18  421
1477467501.929:  -1332 136  18  421
1477467501.930:  -1314 136  18  421
1477467501.931:  -1290 136  18  421
1477467501.931:  -1266 136  18  421
1477467501.931:  -1258 136  18  421
1477467501.932:  -1275 136  18  421
1477467501.932:  -1302 136  18  421
1477467501.932:  -1318 136  18  421
1477467501.933:  -1316 136  18  421
1477467501.933:  -1303 136  18  421
1477467501.945:  -1287 136  18  421
1477467501.946:  -1266 136  18  421
1477467501.947:  -1237 136  18  421
1477467501.947:  -1206 136  18  421
1477467501.947:  -1183 136  18  421
1477467501.948:  -1168 136  18  421
1477467501.948:  -1153 136  18  421
1477467501.949:  -1129 136  18  421
1477467501.949:  -1097 136  18  421
1477467501.949:  -1068 136  18  421
1477467501.950:  -1047 136  18  421
1477467501.950:  -1030 136  18  421
1477467501.950:  -1007 136  18  421
1477467501.950:   -976 136  18  421
1477467501.951:   -947 136  18  444
1477467501.951:   -924 136  18  444
1477467501.952:   -904 136  18  444
1477467501.952:   -873 136  18  444
1477467501.952:   -827 136  18  444
1477467501.953:   -776 136  18  444
1477467501.965:   -734 136  18  444
1477467501.966:   -698 136  18  444
1477467501.966:   -654 136  18  444
1477467501.967:   -590 136  18  444
1477467501.967:   -514 136  18  444
1477467501.968:   -448 136  18  444
1477467501.969:   -406 136  18  444
1477467501.969:   -380 136  18  444
1477467501.970:   -345 136  18  444
1477467501.971:   -283 136  18  444
1477467501.973:   -199 136  18  444
1477467501.974:   -116 136  18  444
1477467501.984:    -57 136  18  444
1477467501.984:    -21 136  18  444
1477467501.984:      5 136  18  444
1477467501.985:     37 136  18  444
1477467501.985:     71 136  18  444
1477467501.985:     97 136  18  444
1477467501.985:    107 136  18  444
1477467501.985:    109 136  18  444
1477467501.986:    119 136  18  444
1477467501.986:    142 136  18  444
1477467501.986:    172 136  18  444
1477467501.986:    197 136  18  444
1477467501.987:    205 136  18  444
1477467501.987:    189 136  18  444
1477467501.988:    161 136  18  444
1477467501.988:    139 136  18  444
1477467501.988:    138 136  18  444
1477467501.988:    157 136  18  444
1477467501.989:    175 136  18  444
1477467501.989:    177 136  18  444
1477467501.989:    164 136  18  444
1477467501.989:    149 136  18  444
1477467501.990:    139 136  18  444
1477467501.990:    122 136  18  444
1477467501.990:     82 136  18  444
1477467501.990:     15 136  18  444
1477467501.991:    -67 136  18  444
1477467501.992:   -143 136  18  444
1477467502.021:   -206 136  18  444
1477467502.021:   -256 136  18  444
1477467502.022:   -297 136  18  444
1477467502.022:   -331 136  18  444
1477467502.022:   -357 136  18  444
1477467502.023:   -377 136  18  444
1477467502.023:   -391 136  18  444
1477467502.023:   -409 136  18  444
1477467502.024:   -438 136  18  444
1477467502.024:   -487 136  18  444
1477467502.024:   -559 136  18  444
1477467502.025:   -649 136  18  444
1477467502.025:   -750 136  18  444
1477467502.026:   -862 136  18  444
1477467502.026:   -984 136  18  444
1477467502.027:  -1117 136  18  444
1477467502.027:  -1250 136  18  444
1477467502.027:  -1367 136  18  444
1477467502.028:  -1450 136  18  444
1477467502.028:  -1496 136  18  444
1477467502.028:  -1519 136  18  444
1477467502.029:  -1537 136  18  444
1477467502.029:  -1557 136  18  444
1477467502.029:  -1573 136  18  444
1477467502.031:  -1579 136  18  444
1477467502.031:  -1576 136  18  444
1477467502.045:  -1576 136  18  444
1477467502.045:  -1590 136  18  444
1477467502.045:  -1621 136  18  444
1477467502.046:  -1657 136  18  444
1477467502.046:  -1682 136  18  444
1477467502.047:  -1695 136  18  444
1477467502.047:  -1703 136  18  444
1477467502.048:  -1717 136  18  444
1477467502.075:  -1737 136  18  444
1477467502.076:  -1753 136  18  444
1477467502.083:  -1758 136  18  444
1477467502.087:  -1761 136  18  444
1477467502.087:  -1775 136  18  444
1477467502.093:  -1797 136  18  444
1477467502.100:  -1812 136  18  444
1477467502.102:  -1809 136  18  444
1477467502.103:  -1793 136  18  444
1477467502.104:  -1783 136  18  444
1477467502.104:  -1785 136  18  444
1477467502.107:  -1788 136  18  444
1477467502.118:  -1778 136  18  444
1477467502.118:  -1752 136  18  444
1477467502.119:  -1731 136  18  444
1477467502.120:  -1728 136  18  444
1477467502.121:  -1742 136  18  444
1477467502.121:  -1748 136  18  444
1477467502.122:  -1725 136  18  444
1477467502.123:  -1675 136  18  444
1477467502.124:  -1619 136  18  444
1477467502.127:  -1591 136  18  444
1477467502.135:  -1605 136  18  444
1477467502.136:  -1655 136  18  444
1477467502.137:  -1720 136  18  444
1477467502.139:  -1783 136  18  444
1477467502.140:  -1838 136  18  444
1477467502.141:  -1874 136  18  444
1477467502.141:  -1863 136  18  444
1477467502.142:  -1757 136  18  444
1477467502.142:  -1524 136  18  444
1477467502.143:  -1168 136  18  444
1477467502.143:   -720 136  18  444
1477467502.144:   -204 136  18  444
1477467502.155:    369 136  18  444
1477467502.155:    986 136  18  444
1477467502.155:   1611 136  18  444
1477467502.156:   2187 136  18  444
1477467502.156:   2658 136  18  444
1477467502.157:   2965 136  18  444
1477467502.157:   3037 136  18  444
1477467502.157:   2811 136  18  444
1477467502.158:   2283 136  18  444
1477467502.158:   1522 136  18  444
1477467502.158:    612 136  18  444
1477467502.159:   -403 136  18  444
1477467502.159:  -1519 136  18  444
1477467502.159:  -2681 136  18  444
1477467502.159:  -3755 136  18  444
1477467502.159:  -4581 136  18  444
1477467502.160:  -5090 136  18  444
1477467502.160:  -5318 136  18  444
1477467502.160:  -5336 136  18  444
1477467502.160:  -5165 136  18  444
1477467502.160:  -4790 136  18  444
1477467502.161:  -4244 136  18  444
1477467502.161:  -3623 136  18  444
1477467502.161:  -3034 136  18  444
1477467502.161:  -2523 136  18  444
1477467502.161:  -2081 136  18  444
1477467502.162:  -1706 136  18  444
1477467502.162:  -1431 136  18  444
1477467502.174:  -1289 136  18  444
1477467502.174:  -1260 136  18  444
1477467502.174:  -1278 136  18  444
1477467502.174:  -1279 136  18  444
1477467502.174:  -1248 136  18  444
1477467502.175:  -1199 136  18  444
1477467502.179:  -1142 136  18  444
1477467502.181:  -1083 136  18  444
1477467502.182:  -1025 136  18  444
1477467502.183:   -976 136  18  444
1477467502.183:   -934 136  18  444
1477467502.187:   -888 136  18  444
1477467502.188:   -838 136  18  444
1477467502.191:   -806 136  18  444
1477467502.193:   -816 136  18  444
1477467502.195:   -862 136  18  444
1477467502.196:   -907 136  18  444
1477467502.197:   -925 136  18  444
1477467502.211:   -926 136  18  444
1477467502.213:   -942 136  18  444
1477467502.214:   -984 136  18  444
1477467502.214:  -1028 136  18  444
1477467502.215:  -1043 136  18  444
1477467502.216:  -1031 136  18  444
1477467502.216:  -1020 136  18  444
1477467502.217:  -1027 136  18  444
1477467502.218:  -1040 136  18  444
1477467502.218:  -1036 136  18  444
1477467502.230:  -1014 136  18  444
1477467502.231:  -1000 136  18  444
1477467502.232:  -1013 136  18  444
1477467502.233:  -1048 136  18  444
1477467502.233:  -1077 136  18  444
1477467502.234:  -1077 136  18  444
1477467502.234:  -1054 136  18  444
1477467502.235:  -1037 136  18  444
1477467502.236:  -1042 136  18  444
1477467502.236:  -1052 136  18  444
1477467502.247:  -1039 136  18  444
1477467502.248:   -996 136  18  444
1477467502.249:   -947 136  18  444
1477467502.264:   -915 136  18  444
1477467502.387:   -901 136  18  444
1477467502.387:   -891 136  18  444
1477467502.387:   -877 136  18  444
1477467502.388:   -858 136  18  444
1477467502.388:   -828 136  18  444
1477467502.388:   -779 136  18  444
1477467502.388:   -707 136  18  444
1477467502.389:   -634 136  18  443
1477467502.389:   -580 136  18  443
1477467502.390:   -541 136  18  443
1477467502.390:   -499 136  18  443
1477467502.390:   -443 136  18  443
1477467502.390:   -386 136  18  443
1477467502.390:   -346 136  18  443
1477467502.390:   -320 136  18  443
1477467502.390:   -292 136  18  443
1477467502.391:   -254 136  18  443
1477467502.391:   -213 136  18  443
1477467502.391:   -178 136  18  443
1477467502.391:   -147 136  18  443
1477467502.391:   -115 136  18  443
1477467502.391:    -85 136  18  443
1477467502.391:    -64 136  18  443
1477467502.392:    -51 136  18  443
1477467502.392:    -36 136  18  443
1477467502.392:    -10 136  18  443
1477467502.392:     23 136  18  443
1477467502.392:     47 136  18  443
1477467502.392:     49 136  18  443
1477467502.392:     33 136  18  443
1477467502.392:     11 136  18  443
1477467502.393:    -10 136  18  443
1477467502.393:    -42 136  18  443
1477467502.393:    -94 136  18  443
1477467502.393:   -161 136  18  443
1477467502.393:   -223 136  18  443
1477467502.393:   -260 136  18  443
1477467502.393:   -283 136  18  443
1477467502.394:   -325 136  18  443
1477467502.394:   -403 136  18  443
1477467502.394:   -501 136  18  443
1477467502.394:   -580 136  18  443
1477467502.394:   -629 136  18  443
1477467502.394:   -680 136  18  443
1477467502.394:   -765 136  18  443
1477467502.395:   -881 136  18  443
1477467502.395:   -987 136  18  443
1477467502.395:  -1049 136  18  443
1477467502.395:  -1079 136  18  443
1477467502.395:  -1115 136  18  443
1477467502.395:  -1180 136  18  443
1477467502.395:  -1257 136  18  443
1477467502.396:  -1315 136  18  443
1477467502.396:  -1347 136  18  443
1477467502.396:  -1373 136  18  443
1477467502.396:  -1408 136  18  443
1477467502.396:  -1442 136  18  443
1477467502.396:  -1454 136  18  443
1477467502.397:  -1440 136  18  443
1477467502.398:  -1424 136  18  443
1477467502.398:  -1428 136  18  443
1477467502.398:  -1445 136  18  443
1477467502.398:  -1446 136  18  443
1477467502.398:  -1414 136  18  443
1477467502.398:  -1373 136  18  443
1477467502.398:  -1360 136  18  443
1477467502.399:  -1377 136  18  443
1477467502.399:  -1389 136  18  443
1477467502.399:  -1371 136  18  443
1477467502.399:  -1350 136  18  443
1477467502.399:  -1378 136  18  443
1477467502.399:  -1466 136  18  443
1477467502.399:  -1563 136  18  443
1477467502.400:  -1619 136  18  443
1477467502.400:  -1644 136  18  443
1477467502.400:  -1680 136  18  443
1477467502.400:  -1718 136  18  443
1477467502.400:  -1679 136  18  443
1477467502.400:  -1495 136  18  443
1477467502.401:  -1191 136  18  443
1477467502.412:   -853 136  18  443
1477467502.413:   -520 136  18  443
1477467502.415:   -154 136  18  443
1477467502.416:    294 136  18  443
1477467502.417:    800 136  18  443
1477467502.417:   1282 136  18  443
1477467502.431:   1666 136  18  443
1477467502.431:   1904 136  18  443
1477467502.431:   1943 136  18  443
1477467502.432:   1724 136  18  443
1477467502.432:   1235 136  18  443
1477467502.432:    548 136  18  443
1477467502.432:   -251 136  18  443
1477467502.433:  -1132 136  18  443
1477467502.433:  -2102 136  18  443
1477467502.433:  -3110 136  18  443
1477467502.434:  -4006 136  18  443
1477467502.436:  -4645 136  18  443
1477467502.437:  -4987 136  18  443
1477467502.438:  -5090 136  18  443
1477467502.447:  -5015 136  18  443
1477467502.448:  -4768 136  18  443
1477467502.448:  -4353 136  18  443
1477467502.449:  -3841 136  18  443
1477467502.452:  -3342 136  18  443
1477467502.452:  -2923 136  18  443
1477467502.453:  -2577 136  18  443
1477467502.456:  -2271 136  18  443
1477467502.466:  -2008 136  18  443
1477467502.466:  -1830 136  18  443
1477467502.468:  -1759 136  18  443
1477467502.490:  -1769 136  18  443
1477467502.491:  -1792 136  18  443
1477467502.492:  -1779 136  18  443
1477467502.502:  -1721 136  18  443
1477467502.503:  -1646 136  18  443
1477467502.504:  -1582 136  18  443
1477467502.506:  -1538 136  18  443
1477467502.506:  -1502 136  18  443
1477467502.507:  -1469 136  18  443
1477467502.508:  -1448 136  18  443
1477467502.509:  -1446 136  18  443
1477467502.509:  -1448 136  18  443
1477467502.510:  -1431 136  18  443
1477467502.511:  -1389 136  18  443
1477467502.511:  -1346 136  18  443
1477467502.513:  -1326 136  18  443
1477467502.513:  -1328 136  18  443
1477467502.513:  -1323 136  18  443
1477467502.513:  -1292 136  18  443
1477467502.514:  -1243 136  18  443
1477467502.514:  -1201 136  18  443
1477467502.514:  -1183 136  18  443
1477467502.514:  -1187 136  18  443
1477467502.514:  -1193 136  18  443
1477467502.515:  -1184 136  18  443
1477467502.515:  -1156 136  18  443
1477467502.515:  -1118 136  18  443
1477467502.516:  -1084 136  18  443
1477467502.517:  -1055 136  18  443
1477467502.519:  -1025 136  18  443
1477467502.524:   -985 136  18  443
1477467502.540:   -942 136  18  443
1477467502.540:   -909 136  18  443
1477467502.541:   -891 136  18  443
1477467502.542:   -880 136  18  443
1477467502.542:   -863 136  18  443
1477467502.543:   -834 136  18  443
1477467502.544:   -796 136  18  443
1477467502.544:   -749 136  18  443
1477467502.545:   -698 136  18  443
1477467502.546:   -654 136  18  443
1477467502.547:   -630 136  18  443
1477467502.549:   -624 136  18  443
1477467502.563:   -622 136  18  443
1477467502.563:   -607 136  18  443
1477467502.563:   -578 136  18  443
1477467502.563:   -541 136  18  443
1477467502.563:   -504 136  18  443
1477467502.564:   -464 136  18  443
1477467502.564:   -414 136  18  443
1477467502.564:   -358 136  18  443
1477467502.564:   -300 136  18  443
1477467502.566:   -247 136  18  443
1477467502.568:   -196 136  18  443
1477467502.569:   -143 136  18  443
1477467502.571:    -88 136  18  443
1477467502.578:    -37 136  18  443
1477467502.578:      4 136  18  443
1477467502.581:     36 136  18  443
1477467502.582:     69 136  18  443
1477467502.582:    114 136  18  443
1477467502.583:    166 136  18  443
1477467502.583:    201 136  18  443
1477467502.590:    208 136  18  443
1477467502.595:    202 136  18  443
1477467502.600:    213 136  18  443
1477467502.600:    251 136  18  443
1477467502.601:    287 136  18  443
1477467502.602:    290 136  18  443
1477467502.602:    268 136  18  443
1477467502.604:    258 136  18  443
1477467502.606:    273 136  18  443
1477467502.607:    283 136  18  443
1477467502.619:    248 136  18  443
1477467502.619:    172 136  18  443
1477467502.620:     94 136  18  443
1477467502.621:     37 136  18  443
1477467502.622:    -21 136  18  443
1477467502.622:   -116 136  18  443
1477467502.624:   -248 136  18  443
1477467502.625:   -378 136  18  443
1477467502.626:   -480 136  18  443
1477467502.627:   -567 136  18  443
1477467502.628:   -666 136  18  443
1477467502.629:   -771 136  18  443
1477467502.632:   -850 136  18  443
1477467502.633:   -884 136  18  443
1477467502.635:   -900 136  18  443
1477467502.636:   -937 136  18  443
1477467502.637:  -1002 136  18  443
1477467502.639:  -1068 136  18  443
1477467502.643:  -1106 136  18  443
1477467502.645:  -1124 136  18  443
1477467502.660:  -1153 136  18  443
1477467502.661:  -1213 136  18  443
1477467502.661:  -1289 136  18  443
1477467502.662:  -1352 136  18  443
1477467502.663:  -1389 136  18  443
1477467502.663:  -1411 136  18  443
1477467502.665:  -1435 136  18  443
1477467502.665:  -1463 136  18  443
1477467502.666:  -1488 136  18  443
1477467502.667:  -1506 136  18  443
1477467502.668:  -1521 136  18  443
1477467502.668:  -1539 136  18  443
1477467502.680:  -1560 136  18  443
1477467502.681:  -1582 136  18  443
1477467502.682:  -1602 136  18  443
1477467502.683:  -1619 136  18  443
1477467502.683:  -1626 136  18  443
1477467502.684:  -1618 136  18  443
1477467502.684:  -1598 136  18  443
1477467502.685:  -1585 136  18  443
1477467502.686:  -1590 134  17  447
1477467502.688:  -1604 134  17  447
1477467502.698:  -1604 134  17  447
1477467502.699:  -1582 134  17  447
1477467502.700:  -1554 134  17  447
1477467502.700:  -1542 134  17  447
1477467502.701:  -1549 134  17  447
1477467502.701:  -1557 134  17  447
1477467502.702:  -1551 134  17  447
1477467502.703:  -1536 134  17  447
1477467502.705:  -1529 134  17  447
1477467502.708:  -1536 134  17  447
1477467502.719:  -1547 134  17  447
1477467502.719:  -1548 134  17  447
1477467502.719:  -1532 134  17  447
1477467502.719:  -1500 134  17  447
1477467502.719:  -1455 134  17  447
1477467502.719:  -1407 134  17  447
1477467502.720:  -1368 134  17  447
1477467502.723:  -1345 134  17  447
1477467502.723:  -1328 134  17  447
1477467502.728:  -1304 134  17  447
1477467502.728:  -1273 134  17  447
1477467502.729:  -1247 134  17  447
1477467502.740:  -1229 134  17  447
1477467502.740:  -1208 134  17  447
1477467502.740:  -1170 134  17  447
1477467502.740:  -1120 134  17  447
1477467502.742:  -1085 134  17  447
1477467502.742:  -1086 134  17  447
1477467502.743:  -1117 134  17  447
1477467502.745:  -1159 134  17  447
1477467502.747:  -1205 134  17  447
1477467502.749:  -1266 134  17  447
1477467502.764:  -1344 134  17  447
1477467502.764:  -1420 134  17  447
1477467502.765:  -1465 134  17  447
1477467502.765:  -1454 134  17  447
1477467502.765:  -1372 134  17  447
1477467502.765:  -1198 134  17  447
1477467502.765:   -912 134  17  447
1477467502.765:   -513 134  17  447
1477467502.768:    -31 134  17  447
1477467502.769:    479 134  17  447
1477467502.775:    979 134  17  447
1477467502.776:   1453 134  17  447
1477467502.777:   1893 134  17  447
1477467502.781:   2268 134  17  447
1477467502.782:   2512 134  17  447
1477467502.783:   2541 134  17  447
1477467502.783:   2299 134  17  447
1477467502.785:   1798 134  17  447
1477467502.786:   1105 134  17  447
1477467502.788:    302 134  17  447
1477467502.805:   -576 134  17  447
1477467502.807:  -1526 134  17  447
1477467502.807:  -2510 134  17  447
1477467502.808:  -3415 134  17  447
1477467502.809:  -4107 134  17  447
1477467502.809:  -4537 134  17  447
1477467502.810:  -4771 134  17  447
1477467502.811:  -4900 134  17  447
1477467502.811:  -4930 134  17  447
1477467502.812:  -4793 134  17  447
1477467502.812:  -4452 134  17  447
1477467502.813:  -3985 134  17  447
1477467502.815:  -3527 134  17  447
1477467502.816:  -3153 134  17  447
1477467502.818:  -2834 134  17  447
1477467502.819:  -2511 134  17  447
1477467502.829:  -2180 134  17  447
1477467502.830:  -1897 134  17  447
1477467502.830:  -1701 134  17  447
1477467502.831:  -1582 134  17  447
1477467502.832:  -1496 134  17  447
1477467502.833:  -1424 134  17  447
1477467502.834:  -1364 134  17  447
1477467502.838:  -1316 134  17  447
1477467502.850:  -1275 134  17  447
1477467502.850:  -1237 134  17  447
1477467502.851:  -1207 134  17  447
1477467502.851:  -1194 134  17  447
1477467502.852:  -1197 134  17  447
1477467502.852:  -1202 134  17  447
1477467502.852:  -1197 134  17  447
1477467502.853:  -1172 134  17  447
1477467502.854:  -1123 134  17  447
1477467502.856:  -1054 134  17  447
1477467502.860:   -989 134  17  447
1477467502.861:   -958 134  17  447
1477467502.872:   -970 134  17  447
1477467502.873:  -1005 134  17  447
1477467502.874:  -1035 134  17  447
1477467502.874:  -1051 134  17  447
1477467502.875:  -1060 134  17  447
1477467502.876:  -1071 134  17  447
1477467502.876:  -1078 134  17  447
1477467502.877:  -1069 134  17  447
1477467502.879:  -1044 134  17  447
1477467502.880:  -1019 134  17  447
1477467502.882:  -1008 134  17  447
1477467502.882:  -1013 134  17  447
1477467502.886:  -1023 134  17  447
1477467502.887:  -1027 134  17  447
1477467502.901:  -1026 134  17  447
1477467502.902:  -1020 134  17  447
1477467502.903:  -1007 134  17  447
1477467502.904:   -984 134  17  447
1477467502.904:   -950 134  17  447
1477467502.905:   -918 134  17  447
1477467502.906:   -895 134  17  447
1477467502.907:   -875 134  17  447
1477467502.908:   -841 134  17  447
1477467502.909:   -790 134  17  447
1477467502.920:   -739 134  17  447
1477467502.920:   -708 134  17  447
1477467502.922:   -695 134  17  447
1477467502.922:   -674 134  17  447
1477467502.924:   -626 134  17  447
1477467502.924:   -563 134  17  447
1477467502.925:   -509 134  17  447
1477467502.925:   -470 134  17  447
1477467502.926:   -423 134  17  447
1477467502.927:   -355 134  17  447
1477467502.938:   -276 134  17  447
1477467502.939:   -214 134  17  447
1477467502.940:   -169 134  17  447
1477467502.940:   -117 134  17  447
1477467502.941:    -35 134  17  447
1477467502.942:     60 134  17  447
1477467502.944:    128 134  17  447
1477467502.945:    152 134  17  447
1477467502.955:    156 134  17  447
1477467502.956:    180 134  17  447
1477467502.959:    239 134  17  447
1477467502.959:    312 134  17  447
1477467502.960:    370 134  17  447
1477467502.960:    405 134  17  447
1477467502.972:    430 134  17  447
1477467502.973:    452 134  17  447
1477467502.973:    467 134  17  447
1477467502.975:    460 134  17  447
1477467502.976:    429 134  17  447
1477467502.977:    382 134  17  447
1477467502.977:    323 134  17  447
1477467502.978:    255 134  17  447
1477467502.978:    184 134  17  447
1477467502.978:    122 134  17  447
1477467502.980:     86 134  17  447
1477467502.982:     69 134  17  447
1477467502.992:     41 134  17  447
1477467503.071:    -22 134  17  447
1477467503.082:   -110 134  17  447
1477467503.083:   -189 134  17  447
1477467503.083:   -242 134  17  447
1477467503.083:   -288 134  17  447
1477467503.083:   -369 134  17  447
1477467503.083:   -490 134  17  447
1477467503.083:   -611 134  17  447
1477467503.083:   -686 134  17  447
1477467503.084:   -710 134  17  447
1477467503.084:   -729 134  17  447
1477467503.084:   -785 134  17  447
1477467503.084:   -869 134  17  447
1477467503.084:   -938 134  17  447
1477467503.085:   -959 134  17  447
1477467503.085:   -941 134  17  447
1477467503.085:   -924 134  17  447
1477467503.085:   -934 134  17  447
1477467503.085:   -964 134  17  447
1477467503.085:   -993 134  17  447
1477467503.086:  -1003 134  17  447
1477467503.086:   -994 134  17  447
1477467503.086:   -983 134  17  447
1477467503.086:   -993 134  17  447
1477467503.086:  -1028 134  17  447
1477467503.086:  -1063 134  17  447
1477467503.087:  -1067 134  17  447
1477467503.087:  -1031 134  17  447
1477467503.087:   -989 134  17  447
1477467503.087:   -981 134  17  447
1477467503.087:  -1015 134  17  447
1477467503.088:  -1060 134  17  447
1477467503.088:  -1096 134  17  447
1477467503.089:  -1133 142  18  443
1477467503.089:  -1199 142  18  443
1477467503.089:  -1292 142  18  443
1477467503.089:  -1372 142  18  443
1477467503.090:  -1409 142  18  443
1477467503.090:  -1414 142  18  443
1477467503.090:  -1429 142  18  443
1477467503.090:  -1466 142  18  443
1477467503.091:  -1495 142  18  443
1477467503.091:  -1484 142  18  443
1477467503.091:  -1442 142  18  443
1477467503.091:  -1415 142  18  443
1477467503.092:  -1429 142  18  443
1477467503.092:  -1469 142  18  443
1477467503.092:  -1498 142  18  443
1477467503.092:  -1502 142  18  443
1477467503.092:  -1499 142  18  443
1477467503.093:  -1502 142  18  443
1477467503.093:  -1510 142  18  443
1477467503.093:  -1515 142  18  443
1477467503.093:  -1528 142  18  443
1477467503.094:  -1560 142  18  443
1477467503.094:  -1602 142  18  443
1477467503.094:  -1629 142  18  443
1477467503.118:  -1628 142  18  443
1477467503.118:  -1616 142  18  443
1477467503.118:  -1619 142  18  443
1477467503.119:  -1636 142  18  443
1477467503.119:  -1639 142  18  443
1477467503.119:  -1610 142  18  443
1477467503.151:  -1561 142  18  443
1477467503.151:  -1524 142  18  443
1477467503.152:  -1515 142  18  443
1477467503.152:  -1522 142  18  443
1477467503.154:  -1516 142  18  443
1477467503.155:  -1491 142  18  443
1477467503.156:  -1469 142  18  443
1477467503.168:  -1469 142  18  443
1477467503.168:  -1490 142  18  443
1477467503.168:  -1508 142  18  443
1477467503.168:  -1507 142  18  443
1477467503.169:  -1493 142  18  443
1477467503.169:  -1489 142  18  443
1477467503.169:  -1500 142  18  443
1477467503.169:  -1510 142  18  443
1477467503.169:  -1501 142  18  443
1477467503.170:  -1474 142  18  443
1477467503.170:  -1450 142  18  443
1477467503.184:  -1438 142  18  443
1477467503.184:  -1436 142  18  443
1477467503.185:  -1433 142  18  443
1477467503.185:  -1431 142  18  443
1477467503.185:  -1433 142  18  443
1477467503.186:  -1432 142  18  443
1477467503.186:  -1422 142  18  443
1477467503.186:  -1405 142  18  443
1477467503.187:  -1389 142  18  443
1477467503.187:  -1373 142  18  443
1477467503.188:  -1350 142  18  443
1477467503.188:  -1316 142  18  443
1477467503.188:  -1295 142  18  443
1477467503.189:  -1315 142  18  443
1477467503.189:  -1376 142  18  443
1477467503.190:  -1449 142  18  443
1477467503.190:  -1509 142  18  443
1477467503.191:  -1566 142  18  443
1477467503.191:  -1641 142  18  443
1477467503.191:  -1731 142  18  443
1477467503.192:  -1807 142  18  443
1477467503.192:  -1845 142  18  443
1477467503.192:  -1840 142  18  443
1477467503.193:  -1779 142  18  443
1477467503.201:  -1609 142  18  443
1477467503.205:  -1274 142  18  443
1477467503.205:   -781 142  18  443
1477467503.205:   -232 142  18  443
1477467503.206:    268 142  18  443
1477467503.206:    711 142  18  443
1477467503.221:   1177 142  18  443
1477467503.222:   1698 142  18  443
1477467503.222:   2147 142  18  443
1477467503.223:   2305 142  18  443
1477467503.223:   2064 142  18  443
1477467503.224:   1537 142  18  443
1477467503.224:    945 142  18  443
1477467503.225:    398 142  18  443
1477467503.225:   -197 142  18  443
1477467503.226:   -987 142  18  443
1477467503.226:  -1965 142  18  443
1477467503.227:  -2926 142  18  443
1477467503.227:  -3641 142  18  443
1477467503.228:  -4050 142  18  443
1477467503.229:  -4270 142  18  443
1477467503.231:  -4435 142  18  443
1477467503.248:  -4556 142  18  443
1477467503.248:  -4543 142  18  443
1477467503.248:  -4343 142  18  443
1477467503.248:  -4007 142  18  443
1477467503.249:  -3636 142  18  443
1477467503.249:  -3285 142  18  443
1477467503.249:  -2937 142  18  443
1477467503.249:  -2566 142  18  443
1477467503.249:  -2199 142  18  443
1477467503.250:  -1891 142  18  443
1477467503.250:  -1665 142  18  443
1477467503.253:  -1491 142  18  443
1477467503.257:  -1331 142  18  443
1477467503.259:  -1191 142  18  443
1477467503.259:  -1112 142  18  443
1477467503.260:  -1117 142  18  443
1477467503.273:  -1178 142  18  443
1477467503.273:  -1241 142  18  443
1477467503.273:  -1273 142  18  443
1477467503.273:  -1280 142  18  443
1477467503.273:  -1278 142  18  443
1477467503.273:  -1269 142  18  443
1477467503.275:  -1244 142  18  443
1477467503.276:  -1203 142  18  443
1477467503.277:  -1161 142  18  443
1477467503.283:  -1123 142  18  443
1477467503.293:  -1084 142  18  443
1477467503.293:  -1039 142  18  443
1477467503.293:  -1007 142  18  443
1477467503.293:  -1009 142  18  443
1477467503.293:  -1044 142  18  443
1477467503.294:  -1079 142  18  443
1477467503.294:  -1080 142  18  443
1477467503.297:  -1047 142  18  443
1477467503.301:  -1017 142  18  443
1477467503.302:  -1017 142  18  443
1477467503.303:  -1040 142  18  443
1477467503.304:  -1060 142  18  443
1477467503.306:  -1067 142  18  443
1477467503.308:  -1075 142  18  443
1477467503.310:  -1100 142  18  443
1477467503.317:  -1131 142  18  443
1477467503.342:  -1144 142  18  443
1477467503.342:  -1126 142  18  443
1477467503.342:  -1090 142  18  443
1477467503.342:  -1047 142  18  443
1477467503.343:   -996 142  18  443
1477467503.343:   -938 142  18  443
1477467503.343:   -888 142  18  443
1477467503.343:   -869 142  18  443
1477467503.343:   -882 142  18  443
1477467503.344:   -896 142  18  443
1477467503.344:   -885 142  18  443
1477467503.344:   -848 142  18  443
1477467503.344:   -809 142  18  443
1477467503.344:   -782 142  18  443
1477467503.344:   -759 142  18  443
1477467503.344:   -731 142  18  443
1477467503.347:   -697 142  18  443
1477467503.347:   -660 142  18  443
1477467503.348:   -611 142  18  443
1477467503.351:   -542 142  18  443
1477467503.355:   -466 142  18  443
1477467503.356:   -408 142  18  443
1477467503.371:   -376 142  18  443
1477467503.371:   -348 142  18  443
1477467503.372:   -295 142  18  443
1477467503.373:   -221 142  18  443
1477467503.374:   -160 142  18  443
1477467503.376:   -136 163  21  411
1477467503.377:   -133 163  21  411
1477467503.378:   -119 163  21  411
1477467503.388:    -83 163  21  411
1477467503.390:    -37 163  21  411
1477467503.391:      5 163  21  411
1477467503.392:     45 163  21  411
1477467503.393:     84 163  21  411
1477467503.393:    111 163  21  411
1477467503.394:    111 163  21  411
1477467503.395:     92 163  21  411
1477467503.406:     73 163  21  411
1477467503.406:     74 163  21  411
1477467503.406:     85 163  21  411
1477467503.406:     85 163  21  411
1477467503.407:     62 163  21  411
1477467503.407:     29 163  21  411
1477467503.407:      7 163  21  411
1477467503.408:     -8 163  21  411
1477467503.408:    -36 163  21  411
1477467503.408:    -88 163  21  411
1477467503.408:   -152 163  21  411
1477467503.411:   -204 163  21  411
1477467503.411:   -235 163  21  411
1477467503.416:   -266 163  21  411
1477467503.417:   -317 163  21  411
1477467503.417:   -386 163  21  411
1477467503.428:   -453 163  21  411
1477467503.428:   -499 163  21  411
1477467503.429:   -526 163  21  411
1477467503.429:   -546 163  21  411
1477467503.429:   -572 163  21  411
1477467503.429:   -605 163  21  411
1477467503.431:   -643 163  21  411
1477467503.433:   -682 163  21  411
1477467503.438:   -710 163  21  411
1477467503.438:   -717 163  21  411
1477467503.439:   -710 163  21  411
1477467503.441:   -713 163  21  411
1477467503.443:   -743 163  21  411
1477467503.444:   -796 163  21  411
1477467503.447:   -855 163  21  411
1477467503.451:   -904 163  21  411
1477467503.468:   -940 163  21  411
1477467503.469:   -964 163  21  411
1477467503.469:   -974 163  21  411
1477467503.469:   -971 163  21  411
1477467503.469:   -966 163  21  411
1477467503.469:   -971 163  21  411
1477467503.469:   -988 163  21  411
1477467503.469:  -1008 163  21  411
1477467503.470:  -1022 163  21  411
1477467503.470:  -1038 163  21  411
1477467503.470:  -1075 163  21  411
1477467503.472:  -1138 163  21  411
1477467503.475:  -1215 163  21  411
1477467503.479:  -1287 163  21  411
1477467503.479:  -1338 163  21  411
1477467503.481:  -1373 163  21  411
1477467503.482:  -1398 163  21  411
1477467503.486:  -1424 163  21  411
1477467503.487:  -1452 163  21  411
1477467503.488:  -1480 163  21  411
1477467503.503:  -1505 163  21  411
1477467503.504:  -1528 163  21  411
1477467503.505:  -1540 163  21  411
1477467503.506:  -1528 163  21  411
1477467503.507:  -1495 163  21  411
1477467503.507:  -1462 163  21  411
1477467503.508:  -1458 163  21  411
1477467503.509:  -1483 163  21  411
1477467503.509:  -1511 163  21  411
1477467503.510:  -1515 163  21  411
1477467503.511:  -1504 163  21  411
1477467503.511:  -1503 163  21  411
1477467503.513:  -1523 163  21  411
1477467503.515:  -1543 163  21  411
1477467503.525:  -1537 163  21  411
1477467503.526:  -1510 163  21  411
1477467503.527:  -1489 163  21  411
1477467503.527:  -1494 163  21  411
1477467503.528:  -1510 163  21  411
1477467503.529:  -1514 163  21  411
1477467503.530:  -1503 163  21  411
1477467503.534:  -1489 163  21  411
1477467503.544:  -1479 163  21  411
1477467503.544:  -1461 163  21  411
1477467503.545:  -1423 163  21  411
1477467503.546:  -1377 163  21  411
1477467503.546:  -1340 163  21  411
1477467503.549:  -1320 163  21  411
1477467503.550:  -1313 163  21  411
1477467503.550:  -1310 163  21  411
1477467503.551:  -1313 163  21  411
1477467503.553:  -1322 163  21  411
1477467503.554:  -1325 163  21  411
1477467503.556:  -1320 163  21  411
1477467503.559:  -1327 163  21  411
1477467503.559:  -1361 163  21  411
1477467503.561:  -1402 163  21  411
1477467503.561:  -1371 163  21  411
1477467503.567:  -1197 163  21  411
1477467503.567:   -877 163  21  411
1477467503.569:   -477 163  21  411
1477467503.570:    -63 163  21  411
1477467503.605:    361 163  21  411
1477467503.605:    840 163  21  411
1477467503.606:   1387 163  21  411
1477467503.606:   1933 163  21  411
1477467503.606:   2350 163  21  411
1477467503.606:   2524 163  21  411
1477467503.606:   2411 163  21  411
1477467503.608:   2043 163  21  411
1477467503.608:   1493 163  21  411
1477467503.609:    827 163  21  411
1477467503.611:     69 163  21  411
1477467503.612:   -785 163  21  411
1477467503.613:  -1719 163  21  411
1477467503.615:  -2660 163  21  411
1477467503.615:  -3489 163  21  411
1477467503.616:  -4104 163  21  411
1477467503.617:  -4487 163  21  411
1477467503.618:  -4683 163  21  411
1477467503.618:  -4742 163  21  411
1477467503.618:  -4675 163  21  411
1477467503.619:  -4467 163  21  411
1477467503.619:  -4132 163  21  411
1477467503.619:  -3728 163  21  411
1477467503.619:  -3324 163  21  411
1477467503.620:  -2958 163  21  411
1477467503.621:  -2627 163  21  411
1477467503.624:  -2322 163  21  411
1477467503.626:  -2051 163  21  411
1477467503.641:  -1837 163  21  411
1477467503.642:  -1680 163  21  411
1477467503.643:  -1545 163  21  411
1477467503.643:  -1396 163  21  411
1477467503.643:  -1230 163  21  411
1477467503.645:  -1080 163  21  411
1477467503.645:   -971 163  21  411
1477467503.645:   -895 163  21  411
1477467503.646:   -821 163  21  411
1477467503.647:   -745 163  21  411
1477467503.648:   -697 163  21  411
1477467503.649:   -698 163  21  411
1477467503.660:   -731 163  21  411
1477467503.661:   -752 163  21  411
1477467503.663:   -735 163  21  411
1477467503.663:   -700 163  21  411
1477467503.664:   -673 163  21  411
1477467503.665:   -654 163  21  411
1477467503.666:   -627 163  21  411
1477467503.666:   -586 163  21  411
1477467503.668:   -544 163  21  411
1477467503.671:   -510 163  21  411
1477467503.672:   -483 163  21  411
1477467503.673:   -461 163  21  411
1477467503.674:   -457 163  21  411
1477467503.675:   -490 163  21  411
1477467503.753:   -553 163  21  411
1477467503.753:   -616 163  21  411
1477467503.753:   -655 163  21  411
1477467503.753:   -677 163  21  411
1477467503.753:   -707 163  21  411
1477467503.754:   -753 163  21  411
1477467503.754:   -797 163  21  411
1477467503.754:   -811 163  21  411
1477467503.754:   -789 163  21  411
1477467503.754:   -750 163  21  411
1477467503.754:   -721 163  21  411
1477467503.754:   -711 163  21  411
1477467503.754:   -712 163  21  411
1477467503.755:   -706 163  21  411
1477467503.755:   -683 163  21  411
1477467503.755:   -650 163  21  411
1477467503.755:   -619 163  21  411
1477467503.755:   -600 163  21  411
1477467503.755:   -584 163  21  411
1477467503.755:   -562 163  21  411
1477467503.755:   -535 163  21  411
1477467503.756:   -511 163  21  411
1477467503.756:   -502 163  21  411
1477467503.756:   -496 163  21  411
1477467503.756:   -477 163  21  411
1477467503.756:   -445 163  21  411
1477467503.756:   -416 166  22  408
1477467503.757:   -401 166  22  408
1477467503.757:   -384 166  22  408
1477467503.757:   -335 166  22  408
1477467503.757:   -246 166  22  408
1477467503.757:   -155 166  22  408
1477467503.757:   -105 166  22  408
1477467503.768:    -98 166  22  408
1477467503.769:    -97 166  22  408
1477467503.770:    -63 166  22  408
1477467503.772:     -6 166  22  408
1477467503.775:     38 166  22  408
1477467503.775:     52 166  22  408
1477467503.775:     58 166  22  408
1477467503.775:     86 166  22  408
1477467503.776:    125 166  22  408
1477467503.776:    144 166  22  408
1477467503.776:    133 166  22  408
1477467503.792:    108 166  22  408
1477467503.793:     89 166  22  408
1477467503.794:     71 166  22  408
1477467503.794:     34 166  22  408
1477467503.795:    -16 166  22  408
1477467503.795:    -54 166  22  408
1477467503.796:    -63 166  22  408
1477467503.796:    -63 166  22  408
1477467503.813:    -87 166  22  408
1477467503.813:   -144 166  22  408
1477467503.814:   -210 166  22  408
1477467503.814:   -260 166  22  408
1477467503.814:   -295 166  22  408
1477467503.814:   -340 166  22  408
1477467503.814:   -412 166  22  408
1477467503.814:   -494 166  22  408
1477467503.815:   -558 166  22  408
1477467503.815:   -588 166  22  408
1477467503.816:   -595 166  22  408
1477467503.816:   -609 166  22  408
1477467503.816:   -647 166  22  408
1477467503.816:   -703 166  22  408
1477467503.817:   -756 166  22  408
1477467503.817:   -794 166  22  408
1477467503.818:   -822 166  22  408
1477467503.818:   -857 166  22  408
1477467503.820:   -904 166  22  408
1477467503.820:   -952 166  22  408
1477467503.822:   -992 166  22  408
1477467503.823:  -1026 166  22  408
1477467503.824:  -1069 166  22  408
1477467503.828:  -1119 166  22  408
1477467503.828:  -1160 166  22  408
1477467503.830:  -1179 166  22  408
1477467503.833:  -1182 166  22  408
1477467503.835:  -1192 166  22  408
1477467503.850:  -1219 166  22  408
1477467503.851:  -1249 166  22  408
1477467503.852:  -1264 166  22  408
1477467503.852:  -1265 166  22  408
1477467503.853:  -1271 166  22  408
1477467503.853:  -1290 166  22  408
1477467503.854:  -1309 166  22  408
1477467503.854:  -1312 166  22  408
1477467503.855:  -1303 166  22  408
1477467503.855:  -1293 166  22  408
1477467503.857:  -1279 166  22  408
1477467503.858:  -1238 166  22  408
1477467503.869:  -1162 166  22  408
1477467503.869:  -1081 166  22  408
1477467503.869:  -1039 166  22  408
1477467503.870:  -1052 166  22  408
1477467503.870:  -1090 166  22  408
1477467503.872:  -1107 166  22  408
1477467503.873:  -1090 166  22  408
1477467503.875:  -1065 166  22  408
1477467503.877:  -1058 166  22  408
1477467503.878:  -1070 166  22  408
1477467503.880:  -1081 166  22  408
1477467503.881:  -1077 166  22  408
1477467503.890:  -1058 166  22  408
1477467503.890:  -1036 166  22  408
1477467503.890:  -1024 166  22  408
1477467503.897:  -1031 166  22  408
1477467503.897:  -1058 166  22  408
1477467503.898:  -1102 166  22  408
1477467503.898:  -1153 166  22  408
1477467503.898:  -1201 166  22  408
1477467503.899:  -1236 166  22  408
1477467503.903:  -1257 166  22  408
1477467503.910:  -1274 166  22  408
1477467503.910:  -1297 166  22  408
1477467503.910:  -1323 166  22  408
1477467503.911:  -1339 166  22  408
1477467503.911:  -1329 166  22  408
1477467503.914:  -1293 166  22  408
1477467503.914:  -1254 166  22  408
1477467503.915:  -1229 166  22  408
1477467503.920:  -1221 166  22  408
1477467503.922:  -1222 166  22  408
1477467503.923:  -1229 166  22  408
1477467503.924:  -1245 166  22  408
1477467503.925:  -1270 166  22  408
1477467503.927:  -1291 166  22  408
1477467503.932:  -1297 166  22  408
1477467503.933:  -1295 166  22  408
1477467503.935:  -1297 166  22  408
1477467503.937:  -1311 166  22  408
1477467503.938:  -1327 166  22  408
1477467503.939:  -1340 166  22  408
1477467503.958:  -1352 166  22  408
1477467503.959:  -1368 166  22  408
1477467503.959:  -1383 166  22  408
1477467503.960:  -1388 166  22  408
1477467503.961:  -1383 166  22  408
1477467503.962:  -1377 166  22  408
1477467503.962:  -1374 166  22  408
1477467503.963:  -1370 166  22  408
1477467503.976:  -1352 166  22  408
1477467503.976:  -1320 166  22  408
1477467503.976:  -1296 166  22  408
1477467503.976:  -1320 166  22  408
1477467503.977:  -1405 166  22  408
1477467503.977:  -1524 166  22  408
1477467503.977:  -1625 166  22  408
1477467503.978:  -1684 166  22  408
1477467503.978:  -1733 166  22  408
1477467503.978:  -1817 166  22  408
1477467503.979:  -1943 166  22  408
1477467503.981:  -2051 166  22  408
1477467503.982:  -2057 166  22  408
1477467503.983:  -1919 166  22  408
1477467503.990:  -1654 166  22  408
1477467503.991:  -1292 166  22  408
1477467503.991:   -844 166  22  408
1477467503.993:   -323 166  22  408
1477467503.993:    238 166  22  408
1477467503.995:    804 166  22  408
1477467503.997:   1368 166  22  408
1477467504.003:   1922 166  22  408
1477467504.012:   2387 166  22  408
1477467504.013:   2611 166  22  408
1477467504.014:   2473 166  22  408
1477467504.014:   2010 166  22  408
1477467504.015:   1394 166  22  408
1477467504.016:    762 166  22  408
1477467504.017:     85 166  22  408
1477467504.017:   -765 166  22  408
1477467504.018:  -1813 166  22  408
1477467504.018:  -2883 166  22  408
1477467504.021:  -3716 166  22  408
1477467504.025:  -4198 166  22  408
1477467504.031:  -4431 166  22  408
1477467504.031:  -4590 166  22  408
1477467504.031:  -4725 166  22  408
1477467504.031:  -4741 166  22  408
1477467504.033:  -4535 166  22  408
1477467504.035:  -4140 166  22  408
1477467504.036:  -3700 166  22  408
1477467504.037:  -3337 166  22  408
1477467504.040:  -3060 166  22  408
1477467504.044:  -2802 166  22  408
1477467504.052:  -2524 166  22  408
1477467504.053:  -2256 166  22  408
1477467504.053:  -2043 166  22  408
1477467504.053:  -1880 166  22  408
1477467504.083:  -1725 166  22  408
1477467504.319:  -1553 166  22  408
1477467504.331:  -1375 166  22  408
1477467504.332:  -1221 166  22  408
1477467504.332:  -1097 166  22  408
1477467504.332:   -993 166  22  408
1477467504.332:   -906 166  22  408
1477467504.332:   -843 166  22  408
1477467504.333:   -807 166  22  408
1477467504.333:   -785 166  22  408
1477467504.333:   -762 166  22  408
1477467504.333:   -733 166  22  408
1477467504.333:   -707 166  22  408
1477467504.333:   -680 166  22  408
1477467504.334:   -646 166  22  408
1477467504.334:   -607 166  22  408
1477467504.334:   -575 166  22  408
1477467504.334:   -553 166  22  408
1477467504.334:   -537 166  22  408
1477467504.335:   -527 166  22  408
1477467504.335:   -533 166  22  408
1477467504.335:   -556 166  22  408
1477467504.335:   -567 166  22  408
1477467504.335:   -535 166  22  408
1477467504.336:   -473 166  22  408
1477467504.336:   -432 166  22  408
1477467504.336:   -446 166  22  408
1477467504.336:   -491 166  22  408
1477467504.336:   -515 166  22  408
1477467504.337:   -498 166  22  408
1477467504.337:   -481 166  22  408
1477467504.337:   -501 166  22  408
1477467504.337:   -553 166  22  408
1477467504.337:   -602 166  22  408
1477467504.338:   -635 166  22  408
1477467504.338:   -673 166  22  408
1477467504.339:   -720 166  22  408
1477467504.339:   -756 166  22  408
1477467504.339:   -754 166  22  408
1477467504.339:   -727 166  22  408
1477467504.339:   -708 166  22  408
1477467504.340:   -700 166  22  408
1477467504.340:   -677 166  22  408
1477467504.340:   -617 166  22  408
1477467504.340:   -544 166  22  408
1477467504.340:   -504 166  22  408
1477467504.340:   -505 166  22  408
1477467504.341:   -512 166  22  408
1477467504.341:   -491 166  22  408
1477467504.341:   -450 166  22  408
1477467504.341:   -428 166  22  408
1477467504.341:   -437 166  22  408
1477467504.341:   -443 166  22  408
1477467504.342:   -401 165  22  413
1477467504.342:   -308 165  22  413
1477467504.342:   -216 165  22  413
1477467504.342:   -178 165  22  413
1477467504.342:   -196 165  22  413
1477467504.342:   -221 165  22  413
1477467504.342:   -202 165  22  413
1477467504.343:   -143 165  22  413
1477467504.343:    -84 165  22  413
1477467504.343:    -64 165  22  413
1477467504.343:    -69 165  22  413
1477467504.343:    -65 165  22  413
1477467504.343:    -35 165  22  413
1477467504.343:      2 165  22  413
1477467504.344:     16 165  22  413
1477467504.344:     -3 165  22  413
1477467504.344:    -37 165  22  413
1477467504.344:    -65 165  22  413
1477467504.344:    -89 165  22  413
1477467504.344:   -112 165  22  413
1477467504.344:   -138 165  22  413
1477467504.345:   -160 165  22  413
1477467504.345:   -177 165  22  413
1477467504.345:   -194 165  22  413
1477467504.345:   -217 165  22  413
1477467504.345:   -251 165  22  413
1477467504.345:   -296 165  22  413
1477467504.345:   -359 165  22  413
1477467504.345:   -433 165  22  413
1477467504.346:   -501 165  22  413
1477467504.346:   -540 165  22  413
1477467504.346:   -552 165  22  413
1477467504.346:   -565 165  22  413
1477467504.346:   -605 165  22  413
1477467504.347:   -669 165  22  413
1477467504.347:   -731 165  22  413
1477467504.347:   -768 165  22  413
1477467504.347:   -785 165  22  413
1477467504.347:   -803 165  22  413
1477467504.348:   -840 165  22  413
1477467504.348:   -891 165  22  413
1477467504.348:   -945 165  22  413
1477467504.348:   -993 165  22  413
1477467504.348:  -1034 165  22  413
1477467504.349:  -1072 165  22  413
1477467504.349:  -1112 165  22  413
1477467504.349:  -1164 165  22  413
1477467504.349:  -1229 165  22  413
1477467504.349:  -1291 165  22  413
1477467504.350:  -1329 165  22  413
1477467504.350:  -1336 165  22  413
1477467504.350:  -1334 165  22  413
1477467504.350:  -1349 165  22  413
1477467504.351:  -1382 165  22  413
1477467504.351:  -1412 165  22  413
1477467504.351:  -1418 165  22  413
1477467504.351:  -1409 165  22  413
1477467504.351:  -1408 165  22  413
1477467504.351:  -1422 165  22  413
1477467504.369:  -1426 165  22  413
1477467504.369:  -1397 165  22  413
1477467504.369:  -1336 165  22  413
1477467504.369:  -1276 165  22  413
1477467504.370:  -1244 165  22  413
1477467504.370:  -1240 165  22  413
1477467504.370:  -1241 165  22  413
1477467504.370:  -1229 165  22  413
1477467504.370:  -1205 165  22  413
1477467504.370:  -1185 165  22  413
1477467504.370:  -1177 165  22  413
1477467504.370:  -1175 165  22  413
1477467504.371:  -1168 165  22  413
1477467504.371:  -1150 165  22  413
1477467504.371:  -1124 165  22  413
1477467504.371:  -1095 165  22  413
1477467504.371:  -1071 165  22  413
1477467504.371:  -1059 165  22  413
1477467504.372:  -1063 165  22  413
1477467504.372:  -1075 165  22  413
1477467504.372:  -1080 165  22  413
1477467504.372:  -1073 165  22  413
1477467504.372:  -1062 165  22  413
1477467504.372:  -1061 165  22  413
1477467504.372:  -1073 165  22  413
1477467504.373:  -1092 165  22  413
1477467504.373:  -1116 165  22  413
1477467504.373:  -1152 165  22  413
1477467504.373:  -1208 165  22  413
1477467504.373:  -1278 165  22  413
1477467504.373:  -1341 165  22  413
1477467504.373:  -1383 165  22  413
1477467504.373:  -1406 165  22  413
1477467504.374:  -1424 165  22  413
1477467504.374:  -1443 165  22  413
1477467504.374:  -1458 165  22  413
1477467504.374:  -1464 165  22  413
1477467504.374:  -1456 165  22  413
1477467504.375:  -1437 165  22  413
1477467504.375:  -1418 165  22  413
1477467504.375:  -1408 165  22  413
1477467504.375:  -1411 165  22  413
1477467504.375:  -1413 165  22  413
1477467504.375:  -1406 165  22  413
1477467504.375:  -1394 165  22  413
1477467504.376:  -1400 165  22  413
1477467504.376:  -1434 165  22  413
1477467504.376:  -1476 165  22  413
1477467504.376:  -1500 165  22  413
1477467504.376:  -1500 165  22  413
1477467504.377:  -1496 165  22  413
1477467504.377:  -1511 165  22  413
1477467504.377:  -1534 165  22  413
1477467504.378:  -1537 165  22  413
1477467504.379:  -1506 165  22  413
1477467504.382:  -1463 165  22  413
1477467504.383:  -1436 165  22  413
1477467504.385:  -1433 165  22  413
1477467504.386:  -1445 165  22  413
1477467504.389:  -1463 165  22  413
1477467504.407:  -1496 165  22  413
1477467504.408:  -1554 165  22  413
1477467504.409:  -1635 165  22  413
1477467504.409:  -1724 165  22  413
1477467504.410:  -1811 165  22  413
1477467504.411:  -1896 165  22  413
1477467504.412:  -1966 165  22  413
1477467504.413:  -1981 165  22  413
1477467504.413:  -1883 165  22  413
1477467504.415:  -1630 165  22  413
1477467504.427:  -1224 165  22  413
1477467504.427:   -706 165  22  413
1477467504.428:   -126 165  22  413
1477467504.429:    474 165  22  413
1477467504.429:   1086 165  22  413
1477467504.430:   1708 165  22  413
1477467504.431:   2306 165  22  413
1477467504.432:   2778 165  22  413
1477467504.433:   2984 165  22  413
1477467504.433:   2832 165  22  413
1477467504.434:   2360 165  22  413
1477467504.435:   1705 165  22  413
1477467504.435:    978 165  22  413
1477467504.438:    174 165  22  413
1477467504.450:   -783 165  22  413
1477467504.450:  -1887 165  22  413
1477467504.451:  -2981 165  22  413
1477467504.452:  -3854 165  22  413
1477467504.452:  -4407 165  22  413
1477467504.453:  -4706 165  22  413
1477467504.454:  -4873 165  22  413
1477467504.454:  -4942 165  22  413
1477467504.455:  -4856 165  22  413
1477467504.456:  -4573 165  22  413
1477467504.469:  -4150 165  22  413
1477467504.469:  -3702 165  22  413
1477467504.469:  -3312 165  22  413
1477467504.469:  -2981 165  22  413
1477467504.469:  -2680 165  22  413
1477467504.472:  -2403 165  22  413
1477467504.473:  -2178 165  22  413
1477467504.473:  -2020 165  22  413
1477467504.473:  -1902 165  22  413
1477467504.474:  -1778 165  22  413
1477467504.478:  -1627 165  22  413
1477467504.479:  -1463 165  22  413
1477467504.488:  -1319 165  22  413
1477467504.488:  -1210 165  22  413
1477467504.488:  -1126 165  22  413
1477467504.488:  -1049 165  22  413
1477467504.489:   -972 165  22  413
1477467504.492:   -902 165  22  413
1477467504.493:   -843 165  22  413
1477467504.494:   -789 165  22  413
1477467504.495:   -737 165  22  413
1477467504.497:   -692 165  22  413
1477467504.502:   -659 165  22  413
1477467504.502:   -630 165  22  413
1477467504.509:   -594 165  22  413
1477467504.509:   -554 165  22  413
1477467504.509:   -537 165  22  413
1477467504.509:   -555 165  22  413
1477467504.514:   -586 165  22  413
1477467504.514:   -588 165  22  413
1477467504.515:   -547 165  22  413
1477467504.521:   -493 165  22  413
1477467504.533:   -461 165  22  413
1477467504.533:   -448 165  22  413
1477467504.533:   -427 165  22  413
1477467504.533:   -391 165  22  413
1477467504.533:   -369 165  22  413
1477467504.533:   -388 165  22  413
1477467504.534:   -432 165  22  413
1477467504.534:   -461 162  21  404
1477467504.537:   -467 162  21  404
1477467504.537:   -487 162  21  404
1477467504.538:   -554 162  21  404
1477467504.541:   -651 162  21  404
1477467504.544:   -728 162  21  404
1477467504.548:   -761 162  21  404
1477467504.554:   -773 162  21  404
1477467504.554:   -796 162  21  404
1477467504.554:   -823 162  21  404
1477467504.554:   -821 162  21  404
1477467504.555:   -774 162  21  404
1477467504.559:   -705 162  21  404
1477467504.562:   -645 162  21  404
1477467504.562:   -605 162  21  404
1477467504.564:   -572 162  21  404
1477467504.566:   -540 162  21  404
1477467504.566:   -514 162  21  404
1477467504.568:   -500 162  21  404
1477467504.571:   -486 162  21  404
1477467504.575:   -459 162  21  404
1477467504.595:   -414 162  21  404
1477467504.597:   -364 162  21  404
1477467504.598:   -321 162  21  404
1477467504.598:   -283 162  21  404
1477467504.599:   -242 162  21  404
