timestamp: ADC HeartRate4sAverage HeartRate30sAverage HRV8sAverage
1477470528.525:   -100  64   8  906
1477470528.533:    -86  64   8  906
1477470528.533:    -83  64   8  906
1477470528.533:    -90  64   8  906
1477470528.533:   -100  64   8  906
1477470528.534:   -107  64   8  906
1477470528.535:   -107  64   8  906
1477470528.535:    -96  64   8  906
1477470528.537:    -75  64   8  906
1477470528.537:    -51  64   8  906
1477470528.537:    -32  64   8  906
1477470528.537:    -19  64   8  906
1477470528.538:     -9  64   8  906
1477470528.538:      3  64   8  906
1477470528.538:     12  64   8  906
1477470528.538:     11  64   8  906
1477470528.538:     -6  64   8  906
1477470528.540:    -32  64   8  906
1477470528.541:    -54  64   8  906
1477470528.551:    -62  64   8  906
1477470528.551:    -58  64   8  906
1477470528.552:    -47  64   8  906
1477470528.553:    -35  64   8  906
1477470528.554:    -20  64   8  906
1477470528.554:      2  64   8  906
1477470528.555:     26  64   8  906
1477470528.564:     48  64   8  906
1477470528.569:     64  64   8  906
1477470528.569:     77  64   8  906
1477470528.569:     92  64   8  906
1477470528.569:    103  64   8  906
1477470528.569:    103  64   8  906
1477470528.571:     92  64   8  906
1477470528.572:     85  64   8  906
1477470528.573:     96  64   8  906
1477470528.578:    124  64   8  906
1477470528.579:    160  64   8  906
1477470528.588:    189  64   8  906
1477470528.588:    213  64   8  906
1477470528.589:    239  64   8  906
1477470528.589:    268  64   8  906
1477470528.589:    297  64   8  906
1477470528.589:    316  64   8  906
1477470528.591:    325  64   8  906
1477470528.593:    327  64   8  906
1477470528.596:    328  64   8  906
1477470528.596:    327  64   8  906
1477470528.600:    318  64   8  906
1477470528.601:    291  64   8  906
1477470528.602:    256  64   8  906
1477470528.604:    239  64   8  906
1477470528.605:    262  64   8  906
1477470528.610:    318  64   8  906
1477470528.610:    371  64   8  906
1477470528.612:    395  64   8  906
1477470528.613:    399  64   8  906
1477470528.616:    415  64   8  906
1477470528.630:    454  64   8  906
1477470528.631:    488  64   8  906
1477470528.632:    477  64   8  906
1477470528.633:    417  64   8  906
1477470528.633:    345  64   8  906
1477470528.634:    297  64   8  906
1477470528.635:    278  64   8  906
1477470528.635:    270  64   8  906
1477470528.636:    262  64   8  906
1477470528.640:    270  64   8  906
1477470528.640:    309  64   8  906
1477470528.640:    368  64   8  906
1477470528.641:    421  64   8  906
1477470528.643:    448  64   8  906
1477470528.662:    454  64   8  906
1477470528.662:    456  64   8  906
1477470528.662:    460  64   8  906
1477470528.662:    455  64   8  906
1477470528.663:    430  64   8  906
1477470528.663:    392  64   8  906
1477470528.663:    366  64   8  906
1477470528.663:    364  64   8  906
1477470528.664:    376  64   8  906
1477470528.666:    380  64   8  906
1477470528.667:    365  64   8  906
1477470528.668:    344  64   8  906
1477470528.669:    332  64   8  906
1477470528.671:    328  64   8  906
1477470528.673:    312  64   8  906
1477470528.674:    273  64   8  906
1477470528.677:    226  64   8  906
1477470528.678:    195  64   8  906
1477470528.691:    192  64   8  906
1477470528.691:    207  64   8  906
1477470528.692:    226  64   8  906
1477470528.692:    245  64   8  906
1477470528.693:    266  64   8  906
1477470528.693:    288  64   8  906
1477470528.693:    308  64   8  906
1477470528.695:    322  64   8  906
1477470528.697:    326  64   8  906
1477470528.698:    317  64   8  906
1477470528.699:    296  64   8  906
1477470528.706:    275  64   8  906
1477470528.712:    267  64   8  906
1477470528.712:    275  64   8  906
1477470528.712:    286  64   8  906
1477470528.712:    283  64   8  906
1477470528.712:    268  64   8  906
1477470528.714:    260  64   8  906
1477470528.716:    275  64   8  906
1477470528.718:    310  64   8  906
1477470528.722:    342  64   8  906
1477470528.723:    352  64   8  906
1477470528.730:    349  64   8  906
1477470528.730:    356  64   8  906
1477470528.730:    379  64   8  906
1477470528.732:    406  64   8  906
1477470528.733:    428  64   8  906
1477470528.734:    444  64   8  906
1477470528.735:    454  64   8  906
1477470528.739:    444  64   8  906
1477470528.749:    403  64   8  906
1477470528.749:    365  64   8  906
1477470528.749:    389  64   8  906
1477470528.749:    494  64   8  906
1477470528.749:    619  64   8  906
1477470528.752:    689  64   8  906
1477470528.752:    720  64   8  906
1477470528.753:    810  64   8  906
1477470528.755:   1029  64   8  906
1477470528.762:   1335  64   8  906
1477470528.769:   1618  64   8  906
1477470528.769:   1815  64   8  906
1477470528.771:   1927  64   8  906
1477470528.771:   1941  64   8  906
1477470528.771:   1791  64   8  906
1477470528.772:   1451  64   8  906
1477470528.772:   1015  64   8  906
1477470528.774:    626  64   8  906
1477470528.775:    324  64   8  906
1477470528.778:     19  64   8  906
1477470528.788:   -355  64   8  906
1477470528.788:   -729  64   8  906
1477470528.788:   -975  64   8  906
1477470528.788:  -1083  64   8  906
1477470528.788:  -1180  64   8  906
1477470528.789:  -1385  64   8  906
1477470528.793:  -1692  64   8  906
1477470528.793:  -2022  64   8  906
1477470528.796:  -2345  64   8  906
1477470528.796:  -2684  64   8  906
1477470528.812:  -3008  64   8  906
1477470528.812:  -3194  64   8  906
1477470528.812:  -3145  64   8  906
1477470528.812:  -2891  64   8  906
1477470528.812:  -2546  64   8  906
1477470528.813:  -2175  64   8  906
1477470528.813:  -1753  64   8  906
1477470528.815:  -1252  64   8  906
1477470528.815:   -728  64   8  906
1477470528.816:   -286  64   8  906
1477470528.818:     12  64   8  906
1477470528.819:    183  65   8  907
1477470528.821:    270  65   8  907
1477470528.824:    299  65   8  907
1477470528.828:    295  65   8  907
1477470528.828:    305  65   8  907
1477470528.863:    377  65   8  907
1477470528.863:    520  65   8  907
1477470528.864:    695  65   8  907
1477470528.864:    853  65   8  907
1477470528.864:    973  65   8  907
1477470528.864:   1057  65   8  907
1477470528.865:   1107  65   8  907
1477470528.865:   1120  65   8  907
1477470528.865:   1099  65   8  907
1477470528.865:   1063  65   8  907
1477470528.871:   1036  65   8  907
1477470528.872:   1031  65   8  907
1477470528.873:   1052  65   8  907
1477470528.873:   1087  65   8  907
1477470528.874:   1121  65   8  907
1477470528.875:   1138  65   8  907
1477470528.886:   1133  65   8  907
1477470528.887:   1120  65   8  907
1477470528.887:   1114  65   8  907
1477470528.887:   1122  65   8  907
1477470528.887:   1134  65   8  907
1477470528.887:   1138  65   8  907
1477470528.894:   1136  65   8  907
1477470528.894:   1142  65   8  907
1477470528.894:   1160  65   8  907
1477470528.894:   1178  65   8  907
1477470528.894:   1186  65   8  907
1477470528.894:   1185  65   8  907
1477470528.895:   1185  65   8  907
1477470528.895:   1192  65   8  907
1477470528.895:   1198  65   8  907
1477470528.895:   1196  65   8  907
1477470528.895:   1187  65   8  907
1477470528.897:   1185  65   8  907
1477470528.908:   1201  65   8  907
1477470528.908:   1235  65   8  907
1477470528.908:   1274  65   8  907
1477470528.908:   1305  65   8  907
1477470528.908:   1320  65   8  907
1477470528.908:   1325  65   8  907
1477470528.911:   1337  65   8  907
1477470528.912:   1365  65   8  907
1477470528.921:   1406  65   8  907
1477470528.921:   1447  65   8  907
1477470528.931:   1479  65   8  907
1477470528.932:   1503  65   8  907
1477470528.932:   1520  65   8  907
1477470528.932:   1532  65   8  907
1477470528.932:   1541  65   8  907
1477470528.933:   1553  65   8  907
1477470528.933:   1576  65   8  907
1477470528.933:   1608  65   8  907
1477470528.933:   1638  65   8  907
1477470528.934:   1658  65   8  907
1477470528.935:   1676  65   8  907
1477470528.939:   1708  65   8  907
1477470528.952:   1763  65   8  907
1477470528.954:   1837  65   8  907
1477470528.954:   1912  65   8  907
1477470528.954:   1974  65   8  907
1477470528.954:   2023  65   8  907
1477470528.955:   2070  65   8  907
1477470528.955:   2125  65   8  907
1477470528.957:   2189  65   8  907
1477470528.957:   2257  65   8  907
1477470528.957:   2322  65   8  907
1477470528.959:   2378  65   8  907
1477470528.960:   2431  65   8  907
1477470528.965:   2490  65   8  907
1477470528.967:   2561  65   8  907
1477470528.975:   2639  65   8  907
1477470528.975:   2715  65   8  907
1477470528.975:   2778  65   8  907
1477470528.975:   2830  65   8  907
1477470528.975:   2878  65   8  907
1477470528.977:   2931  65   8  907
1477470528.979:   2988  65   8  907
1477470528.980:   3039  65   8  907
1477470529.016:   3080  65   8  907
1477470529.016:   3115  65   8  907
1477470529.023:   3151  65   8  907
1477470529.024:   3194  65   8  907
1477470529.024:   3236  65   8  907
1477470529.024:   3267  65   8  907
1477470529.024:   3283  65   8  907
1477470529.024:   3283  65   8  907
1477470529.025:   3271  65   8  907
1477470529.025:   3247  65   8  907
1477470529.025:   3215  65   8  907
1477470529.027:   3182  65   8  907
1477470529.029:   3150  65   8  907
1477470529.030:   3116  65   8  907
1477470529.031:   3074  65   8  907
1477470529.032:   3027  65   8  907
1477470529.032:   2981  65   8  907
1477470529.033:   2937  65   8  907
1477470529.034:   2885  65   8  907
1477470529.034:   2815  65   8  907
1477470529.046:   2732  65   8  907
1477470529.046:   2650  65   8  907
1477470529.047:   2572  65   8  907
1477470529.047:   2484  65   8  907
1477470529.047:   2370  65   8  907
1477470529.047:   2233  65   8  907
1477470529.047:   2095  65   8  907
1477470529.047:   1973  65   8  907
1477470529.047:   1862  65   8  907
1477470529.048:   1743  65   8  907
1477470529.048:   1604  65   8  907
1477470529.048:   1454  65   8  907
1477470529.048:   1306  65   8  907
1477470529.048:   1161  65   8  907
1477470529.051:   1012  65   8  907
1477470529.052:    857  65   8  907
1477470529.054:    705  65   8  907
1477470529.058:    563  65   8  907
1477470529.058:    426  65   8  907
1477470529.059:    284  65   8  907
1477470529.061:    137  65   8  907
1477470529.063:     -1  65   8  907
1477470529.082:   -117  65   8  907
1477470529.083:   -216  65   8  907
1477470529.084:   -311  65   8  907
1477470529.085:   -413  65   8  907
1477470529.103:   -521  65   8  907
1477470529.103:   -624  65   8  907
1477470529.104:   -710  65   8  907
1477470529.104:   -775  65   8  907
1477470529.104:   -829  65   8  907
1477470529.104:   -888  65   8  907
1477470529.105:   -965  65   8  907
1477470529.105:  -1052  65   8  907
1477470529.105:  -1127  65   8  907
1477470529.105:  -1176  65   8  907
1477470529.106:  -1207  65   8  907
1477470529.106:  -1243  65   8  907
1477470529.106:  -1296  65   8  907
1477470529.106:  -1347  65   8  907
1477470529.106:  -1371  65   8  907
1477470529.107:  -1363  65   8  907
1477470529.109:  -1342  65   8  907
1477470529.109:  -1331  65   8  907
1477470529.120:  -1330  65   8  907
1477470529.190:  -1325  65   8  907
1477470529.191:  -1302  65   8  907
1477470529.191:  -1269  65   8  907
1477470529.191:  -1239  65   8  907
1477470529.191:  -1225  65   8  907
1477470529.191:  -1221  65   8  907
1477470529.192:  -1217  65   8  907
1477470529.192:  -1204  65   8  907
1477470529.192:  -1183  65   8  907
1477470529.192:  -1160  65   8  907
1477470529.192:  -1141  65   8  907
1477470529.192:  -1125  65   8  907
1477470529.192:  -1105  65   8  907
1477470529.192:  -1071  65   8  907
1477470529.193:  -1027  65   8  907
1477470529.193:   -985  65   8  907
1477470529.193:   -953  65   8  907
1477470529.193:   -925  65   8  907
1477470529.193:   -894  65   8  907
1477470529.193:   -859  65   8  907
1477470529.193:   -831  65   8  907
1477470529.194:   -819  65   8  907
1477470529.194:   -817  65   8  907
1477470529.194:   -809  65   8  907
1477470529.194:   -788  65   8  907
1477470529.194:   -765  65   8  907
1477470529.194:   -752  65   8  907
1477470529.194:   -749  65   8  907
1477470529.195:   -741  65   8  907
1477470529.195:   -716  65   8  907
1477470529.195:   -680  65   8  907
1477470529.195:   -645  65   8  907
1477470529.195:   -619  65   8  907
1477470529.195:   -600  65   8  907
1477470529.196:   -579  65   8  907
1477470529.196:   -557  65   8  907
1477470529.196:   -539  65   8  907
1477470529.196:   -525  65   8  907
1477470529.196:   -514  65   8  907
1477470529.196:   -505  65   8  907
1477470529.196:   -500  65   8  907
1477470529.197:   -500  65   8  907
1477470529.197:   -503  65   8  907
1477470529.197:   -503  65   8  907
1477470529.197:   -496  65   8  907
1477470529.199:   -484  65   8  907
1477470529.204:   -470  65   8  907
1477470529.204:   -458  65   8  907
1477470529.206:   -447  65   8  907
1477470529.217:   -435  65   8  907
1477470529.218:   -421  65   8  907
1477470529.218:   -409  65   8  907
1477470529.218:   -398  65   8  907
1477470529.219:   -386  65   8  907
1477470529.219:   -368  65   8  907
1477470529.219:   -349  65   8  907
1477470529.224:   -337  65   8  907
1477470529.237:   -339  65   8  907
1477470529.237:   -348  65   8  907
1477470529.238:   -350  65   8  907
1477470529.238:   -341  65   8  907
1477470529.239:   -335  65   8  907
1477470529.239:   -353  65   8  907
1477470529.239:   -396  65   8  907
1477470529.239:   -439  65   8  907
1477470529.239:   -459  65   8  907
1477470529.241:   -454  65   8  907
1477470529.245:   -445  65   8  907
1477470529.245:   -451  65   8  907
1477470529.256:   -466  65   8  907
1477470529.256:   -473  65   8  907
1477470529.256:   -460  65   8  907
1477470529.264:   -434  65   8  907
1477470529.265:   -414  65   8  907
1477470529.265:   -410  65   8  907
1477470529.266:   -421  65   8  907
1477470529.266:   -435  65   8  907
1477470529.267:   -443  65   8  907
1477470529.269:   -444  65   8  907
1477470529.279:   -443  65   8  907
1477470529.279:   -446  65   8  907
1477470529.280:   -459  65   8  907
1477470529.280:   -477  65   8  907
1477470529.280:   -490  65   8  907
1477470529.281:   -495  65   8  907
1477470529.281:   -498  65   8  907
1477470529.283:   -509  65   8  907
1477470529.284:   -529  65   8  907
1477470529.284:   -545  65   8  907
1477470529.286:   -549  65   8  907
1477470529.287:   -544  65   8  907
1477470529.297:   -544  65   8  907
1477470529.297:   -549  65   8  907
1477470529.297:   -548  65   8  907
1477470529.297:   -534  65   8  907
1477470529.297:   -514  65   8  907
1477470529.300:   -505  65   8  907
1477470529.301:   -514  65   8  907
1477470529.306:   -527  65   8  907
1477470529.316:   -532  65   8  907
1477470529.316:   -528  65   8  907
1477470529.316:   -530  65   8  907
1477470529.316:   -540  65   8  907
1477470529.316:   -554  65   8  907
1477470529.317:   -558  65   8  907
1477470529.320:   -554  65   8  907
1477470529.320:   -550  65   8  907
1477470529.322:   -556  65   8  907
1477470529.324:   -569  65   8  907
1477470529.325:   -583  65   8  907
1477470529.327:   -597  65   8  907
1477470529.336:   -608  65   8  907
1477470529.336:   -617  65   8  907
1477470529.336:   -623  65   8  907
1477470529.337:   -623  65   8  907
1477470529.337:   -622  65   8  907
1477470529.339:   -618  65   8  907
1477470529.343:   -610  65   8  907
1477470529.343:   -594  65   8  907
1477470529.358:   -571  65   8  907
1477470529.358:   -554  65   8  907
1477470529.358:   -551  65   8  907
1477470529.358:   -560  65   8  907
1477470529.358:   -568  65   8  907
1477470529.358:   -565  65   8  907
1477470529.359:   -555  65   8  907
1477470529.365:   -553  65   8  907
1477470529.366:   -568  65   8  907
1477470529.366:   -591  65   8  907
1477470529.366:   -604  65   8  907
1477470529.366:   -600  65   8  907
1477470529.368:   -591  65   8  907
1477470529.369:   -593  65   8  907
1477470529.375:   -604  65   8  907
1477470529.375:   -614  65   8  907
1477470529.376:   -614  65   8  907
1477470529.378:   -610  65   8  907
1477470529.379:   -608  65   8  907
1477470529.382:   -606  65   8  907
1477470529.406:   -597  65   8  907
1477470529.406:   -580  65   8  907
1477470529.407:   -567  65   8  907
1477470529.407:   -568  65   8  907
1477470529.407:   -574  65   8  907
1477470529.407:   -574  65   8  907
1477470529.407:   -565  65   8  907
1477470529.408:   -562  65   8  907
1477470529.409:   -576  65   8  907
1477470529.409:   -601  65   8  907
1477470529.409:   -620  65   8  907
1477470529.410:   -623  65   8  907
1477470529.410:   -618  65   8  907
1477470529.410:   -620  65   8  907
1477470529.414:   -635  65   8  907
1477470529.414:   -653  65   8  907
1477470529.416:   -663  65   8  907
1477470529.417:   -660  65   8  907
1477470529.419:   -649  65   8  907
1477470529.421:   -636  65   8  907
1477470529.435:   -628  65   8  907
1477470529.435:   -625  65   8  907
1477470529.435:   -623  65   8  907
1477470529.435:   -614  65   8  907
1477470529.435:   -592  65   8  907
1477470529.435:   -566  65   8  907
1477470529.436:   -550  65   8  907
1477470529.436:   -547  65   8  907
1477470529.441:   -550  65   8  907
1477470529.442:   -542  65   8  907
1477470529.444:   -519  65   8  907
1477470529.446:   -491  65   8  907
1477470529.456:   -473  65   8  907
1477470529.456:   -477  65   8  907
1477470529.457:   -502  65   8  907
1477470529.458:   -536  65   8  907
1477470529.458:   -557  65   8  907
1477470529.459:   -549  65   8  907
1477470529.460:   -516  65   8  907
1477470529.460:   -487  65   8  907
1477470529.465:   -484  65   8  907
1477470529.467:   -502  65   8  907
1477470529.475:   -510  65   8  907
1477470529.475:   -488  65   8  907
1477470529.476:   -452  65   8  907
1477470529.477:   -438  65   8  907
1477470529.477:   -465  65   8  907
1477470529.478:   -512  65   8  907
1477470529.479:   -545  65   8  907
1477470529.481:   -553  65   8  907
1477470529.484:   -553  65   8  907
1477470529.484:   -559  65   8  907
1477470529.515:   -564  65   8  907
1477470529.516:   -551  65   8  907
1477470529.516:   -519  65   8  907
1477470529.516:   -491  65   8  907
1477470529.516:   -484  65   8  907
1477470529.516:   -493  65   8  907
1477470529.516:   -496  65   8  907
1477470529.517:   -484  65   8  907
1477470529.517:   -468  65   8  907
1477470529.517:   -470  65   8  907
1477470529.517:   -495  65   8  907
1477470529.517:   -524  65   8  907
1477470529.517:   -541  65   8  907
1477470529.518:   -545  65   8  907
1477470529.518:   -552  65   8  907
1477470529.518:   -574  65   8  907
1477470529.518:   -606  65   8  907
1477470529.521:   -636  65   8  907
1477470529.525:   -662  65   8  907
1477470529.526:   -694  65   8  907
1477470529.526:   -739  65   8  907
1477470529.527:   -789  65   8  907
1477470529.529:   -829  65   8  907
1477470529.531:   -853  65   8  907
1477470529.540:   -869  65   8  907
1477470529.541:   -885  65   8  907
1477470529.541:   -899  65   8  907
1477470529.541:   -911  65   8  907
1477470529.541:   -923  65   8  907
1477470529.543:   -942  65   8  907
1477470529.545:   -965  65   8  907
1477470529.547:   -975  65   8  907
1477470529.552:   -966  65   8  907
1477470529.553:   -950  65   8  907
1477470529.561:   -947  65   8  907
1477470529.561:   -959  65   8  907
1477470529.561:   -971  65   8  907
1477470529.561:   -963  65   8  907
1477470529.562:   -938  65   8  907
1477470529.566:   -920  65   8  907
1477470529.566:   -925  65   8  907
1477470529.567:   -948  65   8  907
1477470529.569:   -970  65   8  907
1477470529.572:   -980  65   8  907
1477470529.572:   -982  65   8  907
1477470529.575:   -986  65   8  907
1477470529.579:   -988  65   8  907
1477470529.580:   -982  65   8  907
1477470529.581:   -966  65   8  907
1477470529.582:   -948  65   8  907
1477470529.598:   -932  65   8  907
1477470529.598:   -921  65   8  907
1477470529.599:   -919  65   8  907
1477470529.599:   -937  65   8  907
1477470529.600:   -967  65   8  907
1477470529.600:   -978  65   8  907
1477470529.600:   -930  65   8  907
1477470529.601:   -832  65   8  907
1477470529.602:   -744  65   8  907
1477470529.602:   -699  65   8  907
1477470529.606:   -656  65   8  907
1477470529.606:   -530  65   8  907
1477470529.608:   -280  65   8  907
1477470529.609:     44  65   8  907
1477470529.618:    347  65   8  907
1477470529.618:    575  65   8  907
1477470529.618:    712  65   8  907
1477470529.620:    737  65   8  907
1477470529.620:    614  65   8  907
1477470529.622:    341  65   8  907
1477470529.623:    -23  65   8  907
1477470529.625:   -397  65   8  907
1477470529.627:   -746  65   8  907
1477470529.629:  -1074  65   8  907
1477470529.640:  -1378  65   8  907
1477470529.640:  -1625  65   8  907
1477470529.640:  -1802  65   8  907
1477470529.640:  -1952  65   8  907
1477470529.640:  -2122  65   8  907
1477470529.641:  -2321  65   8  907
1477470529.642:  -2530  65   8  907
1477470529.647:  -2766  65   8  907
1477470529.649:  -3078  65   8  907
1477470529.651:  -3465  65   8  907
1477470529.654:  -3812  65   8  907
1477470529.655:  -3966  65   8  907
1477470529.656:  -3876  65   8  907
1477470529.656:  -3620  65   8  907
1477470529.658:  -3308  65   8  907
1477470529.661:  -2979  65   8  907
1477470529.662:  -2599  65   8  907
1477470529.666:  -2158  65   8  907
1477470529.666:  -1709  65   8  907
1477470529.670:  -1332  65   8  907
1477470529.670:  -1073  65   8  907
1477470529.673:   -922  65   8  907
1477470529.686:   -856  65   8  907
1477470529.686:   -857  65   8  907
1477470529.687:   -881  65   8  907
1477470529.687:   -878  65   8  907
1477470529.687:   -805  65   8  907
1477470529.687:   -661  65   8  907
1477470529.687:   -490  65   8  907
1477470529.688:   -345  65   8  907
1477470529.690:   -252  65   8  907
1477470529.694:   -213  65   8  907
1477470529.695:   -214  65   8  907
1477470529.697:   -239  65   8  907
1477470529.707:   -276  65   8  907
1477470529.707:   -305  65   8  907
1477470529.707:   -312  65   8  907
1477470529.708:   -288  65   8  907
1477470529.735:   -243  65   8  907
1477470529.735:   -197  65   8  907
1477470529.753:   -166  65   8  907
1477470529.753:   -149  65   8  907
1477470529.753:   -142  65   8  907
1477470529.754:   -140  65   8  913
1477470529.754:   -148  65   8  913
1477470529.754:   -168  65   8  913
1477470529.755:   -185  65   8  913
1477470529.755:   -180  65   8  913
1477470529.755:   -148  65   8  913
1477470529.755:   -105  65   8  913
1477470529.755:    -70  65   8  913
1477470529.756:    -50  65   8  913
1477470529.756:    -37  65   8  913
1477470529.756:    -22  65   8  913
1477470529.756:    -12  65   8  913
1477470529.756:    -16  65   8  913
1477470529.756:    -37  65   8  913
1477470529.757:    -57  65   8  913
1477470529.757:    -60  65   8  913
1477470529.757:    -42  65   8  913
1477470529.757:    -19  65   8  913
1477470529.757:     -3  65   8  913
1477470529.757:      4  65   8  913
1477470529.758:     18  65   8  913
1477470529.758:     47  65   8  913
1477470529.762:     90  65   8  913
1477470529.763:    135  65   8  913
1477470529.763:    170  65   8  913
1477470529.765:    199  65   8  913
1477470529.766:    227  65   8  913
1477470529.772:    258  65   8  913
1477470529.773:    289  65   8  913
1477470529.774:    317  65   8  913
1477470529.774:    340  65   8  913
1477470529.791:    363  65   8  913
1477470529.791:    390  65   8  913
1477470529.792:    424  65   8  913
1477470529.792:    462  65   8  913
1477470529.792:    502  65   8  913
1477470529.792:    538  65   8  913
1477470529.792:    573  65   8  913
1477470529.792:    617  65   8  913
1477470529.793:    673  65   8  913
1477470529.793:    733  65   8  913
1477470529.796:    788  65   8  913
1477470529.798:    835  65   8  913
1477470529.799:    884  65   8  913
1477470529.802:    949  65   8  913
1477470529.803:   1030  65   8  913
1477470529.807:   1115  65   8  913
1477470529.817:   1193  65   8  913
1477470529.817:   1259  65   8  913
1477470529.817:   1316  65   8  913
1477470529.817:   1372  65   8  913
1477470529.818:   1429  65   8  913
1477470529.818:   1489  65   8  913
1477470529.819:   1551  65   8  913
1477470529.821:   1613  65   8  913
1477470529.823:   1673  65   8  913
1477470529.825:   1729  65   8  913
1477470529.830:   1785  65   8  913
1477470529.830:   1846  65   8  913
1477470529.832:   1915  65   8  913
1477470529.833:   1989  65   8  913
1477470529.846:   2059  65   8  913
1477470529.846:   2120  65   8  913
1477470529.847:   2169  65   8  913
1477470529.847:   2214  65   8  913
1477470529.848:   2258  65   8  913
1477470529.848:   2301  65   8  913
1477470529.848:   2335  65   8  913
1477470529.850:   2355  65   8  913
1477470529.853:   2361  65   8  913
1477470529.854:   2362  65   8  913
1477470529.857:   2360  65   8  913
1477470529.858:   2352  65   8  913
1477470529.868:   2331  65   8  913
1477470529.868:   2295  65   8  913
1477470529.869:   2251  65   8  913
1477470529.869:   2205  65   8  913
1477470529.870:   2154  65   8  913
1477470529.871:   2094  65   8  913
1477470529.871:   2025  65   8  913
1477470529.873:   1951  65   8  913
1477470529.874:   1878  65   8  913
1477470529.875:   1803  65   8  913
1477470529.878:   1719  65   8  913
1477470529.880:   1621  65   8  913
1477470529.889:   1514  65   8  913
1477470529.889:   1405  65   8  913
1477470529.889:   1292  65   8  913
1477470529.889:   1168  65   8  913
1477470529.890:   1029  65   8  913
1477470529.892:    881  65   8  913
1477470529.894:    737  65   8  913
1477470529.898:    606  65   8  913
1477470529.923:    484  65   8  913
1477470529.923:    359  65   8  913
1477470529.924:    223  65   8  913
1477470529.924:     83  65   8  913
1477470529.924:    -49  65   8  913
1477470529.925:   -167  65   8  913
1477470529.925:   -283  65   8  913
1477470529.925:   -414  65   8  913
1477470529.925:   -561  65   8  913
1477470529.926:   -706  65   8  913
1477470529.926:   -830  65   8  913
1477470529.926:   -934  65   8  913
1477470529.926:  -1035  65   8  913
1477470529.928:  -1146  65   8  913
1477470529.928:  -1254  65   8  913
1477470529.928:  -1339  65   8  913
1477470529.929:  -1396  65   8  913
1477470529.930:  -1439  65   8  913
1477470529.933:  -1487  65   8  913
1477470529.938:  -1538  65   8  913
1477470529.938:  -1580  65   8  913
1477470529.939:  -1606  65   8  913
1477470529.940:  -1630  65   8  913
1477470529.945:  -1660  65   8  913
1477470529.956:  -1695  65   8  913
1477470529.956:  -1724  65   8  913
1477470529.956:  -1739  65   8  913
1477470529.957:  -1746  65   8  913
1477470529.957:  -1753  65   8  913
1477470529.957:  -1763  65   8  913
1477470529.959:  -1772  65   8  913
1477470529.960:  -1775  65   8  913
1477470529.960:  -1769  65   8  913
1477470529.962:  -1753  65   8  913
1477470529.965:  -1734  65   8  913
1477470529.967:  -1722  65   8  913
1477470529.968:  -1719  65   8  913
1477470529.973:  -1715  65   8  913
1477470529.973:  -1696  65   8  913
1477470529.974:  -1659  65   8  913
1477470529.988:  -1621  65   8  913
1477470529.989:  -1599  65   8  913
1477470529.990:  -1589  65   8  913
1477470529.991:  -1574  65   8  913
1477470529.992:  -1542  65   8  913
1477470529.992:  -1501  65   8  913
1477470530.022:  -1467  65   8  913
1477470530.022:  -1440  65   8  913
1477470530.023:  -1411  65   8  913
1477470530.023:  -1374  65   8  913
1477470530.043:  -1335  65   8  913
1477470530.044:  -1303  65   8  913
1477470530.046:  -1275  65   8  913
1477470530.047:  -1243  65   8  913
1477470530.048:  -1210  65   8  913
1477470530.048:  -1191  65   8  913
1477470530.049:  -1195  65   8  913
1477470530.050:  -1210  65   8  913
1477470530.061:  -1214  65   8  913
1477470530.127:  -1199  65   8  913
1477470530.127:  -1177  65   8  913
1477470530.127:  -1160  65   8  913
1477470530.127:  -1147  65   8  913
1477470530.127:  -1128  65   8  913
1477470530.128:  -1096  65   8  913
1477470530.128:  -1055  65   8  913
1477470530.128:  -1013  65   8  913
1477470530.128:   -973  65   8  913
1477470530.129:   -940  65   8  913
1477470530.129:   -918  65   8  913
1477470530.129:   -910  65   8  913
1477470530.129:   -909  65   8  913
1477470530.129:   -903  65   8  913
1477470530.130:   -889  65   8  913
1477470530.130:   -873  65   8  913
1477470530.130:   -862  65   8  913
1477470530.131:   -852  65   8  913
1477470530.132:   -839  65   8  913
1477470530.132:   -822  65   8  913
1477470530.132:   -812  65   8  913
1477470530.132:   -809  65   8  913
1477470530.132:   -808  65   8  913
1477470530.133:   -803  65   8  913
1477470530.133:   -795  65   8  913
1477470530.133:   -789  65   8  913
1477470530.133:   -786  65   8  913
1477470530.134:   -779  65   8  913
1477470530.134:   -768  65   8  913
1477470530.149:   -757  65   8  913
1477470530.149:   -751  65   8  913
1477470530.149:   -747  65   8  913
1477470530.150:   -738  65   8  913
1477470530.150:   -727  65   8  913
1477470530.150:   -721  65   8  913
1477470530.150:   -725  65   8  913
1477470530.151:   -730  65   8  913
1477470530.151:   -731  65   8  913
1477470530.151:   -732  65   8  913
1477470530.151:   -741  65   8  913
1477470530.151:   -756  65   8  913
1477470530.152:   -768  65   8  913
1477470530.152:   -775  65   8  913
1477470530.152:   -783  65   8  913
1477470530.152:   -800  65   8  913
1477470530.153:   -818  65   8  913
1477470530.153:   -824  65   8  913
1477470530.153:   -816  65   8  913
1477470530.153:   -806  65   8  913
1477470530.154:   -804  65   8  913
1477470530.154:   -806  65   8  913
1477470530.155:   -798  65   8  913
1477470530.155:   -781  65   8  913
1477470530.155:   -768  65   8  913
1477470530.155:   -768  65   8  913
1477470530.155:   -773  65   8  913
1477470530.156:   -772  65   8  913
1477470530.156:   -763  65   8  913
1477470530.156:   -759  65   8  913
1477470530.157:   -770  65   8  913
1477470530.157:   -786  65   8  913
1477470530.157:   -794  65   8  913
1477470530.157:   -786  65   8  913
1477470530.169:   -772  65   8  913
1477470530.169:   -765  65   8  913
1477470530.169:   -769  65   8  913
1477470530.170:   -776  65   8  913
1477470530.170:   -778  65   8  913
1477470530.170:   -775  65   8  913
1477470530.170:   -771  65   8  913
1477470530.171:   -770  65   8  913
1477470530.171:   -769  65   8  913
1477470530.171:   -765  65   8  913
1477470530.171:   -761  65   8  913
1477470530.172:   -758  65   8  913
1477470530.172:   -756  65   8  913
1477470530.173:   -750  65   8  913
1477470530.173:   -742  65   8  913
1477470530.173:   -738  65   8  913
1477470530.174:   -740  65   8  913
1477470530.174:   -745  65   8  913
1477470530.174:   -741  65   8  913
1477470530.178:   -728  65   8  913
1477470530.178:   -714  65   8  913
1477470530.185:   -705  65   8  913
1477470530.192:   -699  65   8  913
1477470530.193:   -689  65   8  913
1477470530.194:   -676  65   8  913
1477470530.194:   -668  65   8  913
1477470530.195:   -668  65   8  913
1477470530.196:   -670  65   8  913
1477470530.196:   -667  65   8  913
1477470530.197:   -661  65   8  913
1477470530.197:   -659  65   8  913
1477470530.199:   -666  65   8  913
1477470530.201:   -677  65   8  913
1477470530.205:   -678  65   8  913
1477470530.206:   -664  65   8  913
1477470530.207:   -644  65   8  913
1477470530.209:   -630  65   8  913
1477470530.210:   -628  65   8  913
1477470530.212:   -633  65   8  913
1477470530.214:   -636  65   8  913
1477470530.230:   -632  65   8  913
1477470530.231:   -626  65   8  913
1477470530.233:   -621  65   8  913
1477470530.233:   -619  65   8  913
1477470530.238:   -619  65   8  913
1477470530.239:   -619  65   8  913
1477470530.252:   -621  65   8  913
1477470530.252:   -621  65   8  913
1477470530.252:   -612  65   8  913
1477470530.254:   -594  65   8  913
1477470530.254:   -576  65   8  913
1477470530.255:   -568  65   8  913
1477470530.255:   -570  65   8  913
1477470530.255:   -572  65   8  913
1477470530.255:   -568  65   8  913
1477470530.255:   -560  65   8  913
1477470530.255:   -554  65   8  913
1477470530.256:   -552  65   8  913
1477470530.256:   -551  65   8  913
1477470530.256:   -553  65   8  913
1477470530.257:   -557  65   8  913
1477470530.257:   -562  65   8  913
1477470530.260:   -562  65   8  913
1477470530.261:   -556  65   8  913
1477470530.265:   -547  65   8  913
1477470530.266:   -539  65   8  913
1477470530.267:   -528  65   8  913
1477470530.268:   -512  65   8  913
1477470530.274:   -495  65   8  913
1477470530.274:   -482  65   8  913
1477470530.283:   -471  65   8  913
1477470530.284:   -458  65   8  913
1477470530.285:   -445  65   8  913
1477470530.285:   -443  65   8  913
1477470530.285:   -464  65   8  913
1477470530.286:   -496  65   8  913
1477470530.286:   -518  65   8  913
1477470530.289:   -521  65   8  913
1477470530.292:   -514  65   8  913
1477470530.293:   -514  65   8  913
1477470530.316:   -525  65   8  913
1477470530.317:   -533  65   8  913
1477470530.317:   -526  65   8  913
1477470530.317:   -508  65   8  913
1477470530.317:   -491  65   8  913
1477470530.317:   -481  65   8  913
1477470530.317:   -475  65   8  913
1477470530.318:   -466  65   8  913
1477470530.318:   -454  65   8  913
1477470530.318:   -444  65   8  913
1477470530.318:   -435  65   8  913
1477470530.320:   -423  65   8  913
1477470530.321:   -401  65   8  913
1477470530.321:   -367  65   8  913
1477470530.325:   -330  65   8  913
1477470530.326:   -301  65   8  913
1477470530.326:   -285  65   8  913
1477470530.327:   -278  65   8  913
1477470530.333:   -270  65   8  913
1477470530.333:   -256  65   8  913
1477470530.350:   -244  65   8  913
1477470530.350:   -245  65   8  913
1477470530.350:   -266  65   8  913
1477470530.351:   -305  65   8  913
1477470530.351:   -342  65   8  913
1477470530.351:   -358  65   8  913
1477470530.351:   -339  65   8  913
1477470530.351:   -294  65   8  913
1477470530.351:   -246  65   8  913
1477470530.352:   -215  65   8  913
1477470530.353:   -200  65   8  913
1477470530.357:   -182  65   8  913
1477470530.358:   -148  65   8  913
1477470530.359:   -108  65   8  913
1477470530.360:    -91  65   8  913
1477470530.366:   -107  65   8  913
1477470530.373:   -140  65   8  913
1477470530.373:   -164  65   8  913
1477470530.373:   -169  65   8  913
1477470530.373:   -169  65   8  913
1477470530.374:   -175  65   8  913
1477470530.374:   -178  65   8  913
1477470530.379:   -160  65   8  913
1477470530.379:   -119  65   8  913
1477470530.381:    -77  65   8  913
1477470530.383:    -57  65   8  913
1477470530.392:    -57  65   8  913
1477470530.392:    -58  65   8  913
1477470530.392:    -47  65   8  913
1477470530.392:    -33  65   8  913
1477470530.393:    -32  65   8  913
1477470530.395:    -43  65   8  913
1477470530.409:    -54  65   8  913
1477470530.413:    -57  65   8  913
1477470530.414:    -58  65   8  913
1477470530.414:    -66  65   8  913
1477470530.415:    -76  65   8  913
1477470530.415:    -82  65   8  913
1477470530.415:    -86  65   8  913
1477470530.416:   -101  65   8  913
1477470530.416:   -139  65   8  913
1477470530.416:   -190  65   8  913
1477470530.417:   -230  65   8  913
1477470530.418:   -250  65   8  913
1477470530.435:   -262  65   8  913
1477470530.436:   -282  65   8  913
1477470530.439:   -309  65   8  913
1477470530.439:   -331  65   8  913
1477470530.439:   -342  65   8  913
1477470530.440:   -350  65   8  913
1477470530.440:   -368  65   8  913
1477470530.440:   -393  65   8  913
1477470530.441:   -410  65   8  913
1477470530.441:   -411  65   8  913
1477470530.442:   -402  65   8  913
1477470530.443:   -398  65   8  913
1477470530.457:   -405  65   8  913
1477470530.458:   -408  65   8  913
1477470530.458:   -397  65   8  913
1477470530.459:   -376  65   8  913
1477470530.459:   -367  65   8  913
1477470530.459:   -380  65   8  913
1477470530.459:   -407  65   8  913
1477470530.459:   -427  65   8  913
1477470530.461:   -427  65   8  913
1477470530.462:   -421  65   8  913
1477470530.466:   -421  65   8  913
1477470530.467:   -422  65   8  913
1477470530.472:   -419  65   8  913
1477470530.472:   -408  65   8  913
1477470530.480:   -390  65   8  913
1477470530.481:   -369  65   8  913
1477470530.481:   -351  65   8  913
1477470530.481:   -351  65   8  913
1477470530.482:   -385  65   8  913
1477470530.483:   -430  65   8  913
1477470530.484:   -429  65   8  913
1477470530.485:   -346  65   8  913
1477470530.486:   -225  65   8  913
1477470530.488:   -143  65   8  913
1477470530.490:   -114  65   8  913
1477470530.493:    -52  65   8  913
1477470530.507:    127  65   8  913
1477470530.507:    400  65   8  913
1477470530.508:    661  65   8  913
1477470530.508:    828  65   8  913
1477470530.509:    904  65   8  913
1477470530.509:    904  65   8  913
1477470530.509:    779  65   8  913
1477470530.510:    475  65   8  913
1477470530.510:     50  65   8  913
1477470530.512:   -347  65   8  913
1477470530.516:   -629  65   8  913
1477470530.516:   -858  65   8  913
1477470530.518:  -1137  65   8  913
1477470530.520:  -1442  65   8  913
1477470530.532:  -1635  65   8  913
1477470530.532:  -1653  65   8  913
1477470530.532:  -1610  65   8  913
1477470530.532:  -1682  65   8  913
1477470530.532:  -1924  65   8  913
1477470530.533:  -2250  65   8  913
1477470530.535:  -2566  65   8  913
1477470530.536:  -2865  65   8  913
1477470530.538:  -3162  65   8  913
1477470530.539:  -3394  65   8  913
1477470530.544:  -3454  65   8  913
1477470530.544:  -3308  65   8  913
1477470530.556:  -3023  65   8  913
1477470530.556:  -2683  65   8  913
1477470530.556:  -2308  65   8  913
1477470530.557:  -1877  65   8  913
1477470530.557:  -1408  65   8  913
1477470530.557:   -975  65   8  913
1477470530.558:   -652  65   8  913
1477470530.560:   -463  65   8  913
1477470530.561:   -381  65   8  913
1477470530.566:   -368  65   8  913
1477470530.585:   -376  65   8  913
1477470530.585:   -356  67   9  910
1477470530.585:   -273  67   9  910
1477470530.586:   -136  67   9  910
1477470530.586:     22  67   9  910
1477470530.586:    169  67   9  910
1477470530.586:    294  67   9  910
1477470530.586:    392  67   9  910
1477470530.587:    455  67   9  910
1477470530.587:    468  67   9  910
1477470530.587:    438  67   9  910
1477470530.588:    394  67   9  910
1477470530.589:    360  67   9  910
1477470530.597:    347  67   9  910
1477470530.619:    357  67   9  910
1477470530.619:    387  67   9  910
1477470530.619:    433  67   9  910
1477470530.620:    479  67   9  910
1477470530.620:    508  67   9  910
1477470530.621:    512  67   9  910
1477470530.621:    502  67   9  910
1477470530.621:    492  67   9  910
1477470530.622:    488  67   9  910
1477470530.623:    488  67   9  910
1477470530.623:    486  67   9  910
1477470530.624:    484  67   9  910
1477470530.624:    489  67   9  910
1477470530.624:    501  67   9  910
1477470530.625:    512  67   9  910
1477470530.625:    514  67   9  910
1477470530.627:    511  67   9  910
1477470530.627:    514  67   9  910
1477470530.630:    527  67   9  910
1477470530.630:    545  67   9  910
1477470530.632:    559  67   9  910
1477470530.633:    571  67   9  910
1477470530.644:    594  67   9  910
1477470530.644:    627  67   9  910
1477470530.645:    654  67   9  910
1477470530.648:    661  67   9  910
1477470530.648:    653  67   9  910
1477470530.649:    652  67   9  910
1477470530.650:    670  67   9  910
1477470530.651:    698  67   9  910
1477470530.652:    721  67   9  910
1477470530.653:    737  67   9  910
1477470530.663:    758  67   9  910
1477470530.663:    794  67   9  910
1477470530.664:    836  67   9  910
1477470530.664:    869  67   9  910
1477470530.664:    897  67   9  910
1477470530.666:    930  67   9  910
1477470530.667:    974  67   9  910
1477470530.672:   1018  67   9  910
1477470530.672:   1050  67   9  910
1477470530.673:   1077  67   9  910
1477470530.676:   1116  67   9  910
1477470530.677:   1176  67   9  910
1477470530.682:   1243  67   9  910
1477470530.682:   1302  67   9  910
1477470530.685:   1348  67   9  910
1477470530.685:   1395  67   9  910
1477470530.687:   1452  67   9  910
1477470530.689:   1515  67   9  910
1477470530.701:   1576  67   9  910
1477470530.701:   1637  67   9  910
1477470530.702:   1706  67   9  910
1477470530.702:   1782  67   9  910
1477470530.702:   1855  67   9  910
1477470530.702:   1919  67   9  910
1477470530.703:   1985  67   9  910
1477470530.705:   2071  67   9  910
1477470530.707:   2176  67   9  910
1477470530.708:   2278  67   9  910
1477470530.712:   2356  67   9  910
1477470530.712:   2416  67   9  910
1477470530.725:   2481  67   9  910
1477470530.725:   2563  67   9  910
1477470530.725:   2649  67   9  910
1477470530.725:   2718  67   9  910
1477470530.725:   2766  67   9  910
1477470530.726:   2810  67   9  910
1477470530.726:   2862  67   9  910
1477470530.728:   2915  67   9  910
1477470530.730:   2951  67   9  910
1477470530.731:   2970  67   9  910
1477470530.734:   2985  67   9  910
1477470530.735:   3008  67   9  910
1477470530.738:   3036  67   9  910
1477470530.739:   3053  67   9  910
1477470530.759:   3053  67   9  910
1477470530.760:   3044  67   9  910
1477470530.760:   3036  67   9  910
1477470530.760:   3030  67   9  910
1477470530.760:   3017  67   9  910
1477470530.761:   2992  67   9  910
1477470530.761:   2953  67   9  910
1477470530.761:   2904  67   9  910
1477470530.763:   2844  67   9  910
1477470530.763:   2772  67   9  910
1477470530.764:   2690  67   9  910
1477470530.764:   2604  67   9  910
1477470530.765:   2517  67   9  910
1477470530.766:   2423  67   9  910
1477470530.769:   2315  67   9  910
1477470530.771:   2191  67   9  910
1477470530.782:   2059  67   9  910
1477470530.782:   1930  67   9  910
1477470530.783:   1804  67   9  910
1477470530.783:   1675  67   9  910
1477470530.783:   1538  67   9  910
1477470530.783:   1390  67   9  910
1477470530.785:   1230  67   9  910
1477470530.791:   1064  67   9  910
1477470530.792:    893  67   9  910
1477470530.792:    723  67   9  910
1477470530.793:    555  67   9  910
1477470530.794:    391  67   9  910
1477470530.798:    231  67   9  910
1477470530.799:     75  67   9  910
1477470530.804:    -75  67   9  910
1477470530.804:   -215  67   9  910
1477470530.805:   -341  67   9  910
1477470530.807:   -453  67   9  910
1477470530.833:   -555  67   9  910
1477470530.834:   -650  67   9  910
1477470530.834:   -745  67   9  910
1477470530.835:   -840  67   9  910
1477470530.837:   -933  67   9  910
1477470530.837:  -1021  67   9  910
1477470530.839:  -1108  67   9  910
1477470530.839:  -1198  67   9  910
1477470530.840:  -1290  67   9  910
1477470530.840:  -1370  67   9  910
1477470530.843:  -1428  67   9  910
1477470530.843:  -1468  67   9  910
1477470530.843:  -1502  67   9  910
1477470530.844:  -1539  67   9  910
1477470530.845:  -1573  67   9  910
1477470530.845:  -1591  67   9  910
1477470530.846:  -1586  67   9  910
1477470530.847:  -1569  67   9  910
1477470530.847:  -1558  67   9  910
1477470530.848:  -1559  67   9  910
1477470530.858:  -1564  67   9  910
1477470530.859:  -1559  67   9  910
1477470530.859:  -1545  67   9  910
1477470530.859:  -1526  67   9  910
1477470530.859:  -1508  67   9  910
1477470530.860:  -1490  67   9  910
1477470530.860:  -1469  67   9  910
1477470530.863:  -1446  67   9  910
1477470530.864:  -1426  67   9  910
1477470530.865:  -1408  67   9  910
1477470530.866:  -1384  67   9  910
1477470530.869:  -1350  67   9  910
1477470530.871:  -1307  67   9  910
1477470530.873:  -1267  67   9  910
1477470530.883:  -1236  67   9  910
1477470530.883:  -1213  67   9  910
1477470530.883:  -1190  67   9  910
1477470530.884:  -1163  67   9  910
1477470530.884:  -1132  67   9  910
1477470530.885:  -1101  67   9  910
1477470530.886:  -1074  67   9  910
1477470530.936:  -1056  67   9  910
1477470530.940:  -1048  67   9  910
1477470530.941:  -1041  67   9  910
1477470530.941:  -1026  67   9  910
1477470530.941:  -1005  67   9  910
1477470530.941:   -994  67   9  910
1477470530.941:  -1002  67   9  910
1477470530.941:  -1022  67   9  910
1477470530.942:  -1038  67   9  910
1477470530.942:  -1045  67   9  910
1477470530.942:  -1057  67   9  910
1477470530.942:  -1090  67   9  910
1477470530.942:  -1134  67   9  910
1477470530.942:  -1160  67   9  910
1477470530.943:  -1153  67   9  910
1477470530.943:  -1123  67   9  910
1477470530.943:  -1096  67   9  910
1477470530.943:  -1081  67   9  910
1477470530.943:  -1061  67   9  910
1477470530.943:  -1022  67   9  910
1477470530.944:   -968  67   9  910
1477470530.944:   -921  67   9  910
1477470530.944:   -890  67   9  910
1477470530.944:   -869  67   9  910
1477470530.944:   -846  67   9  910
1477470530.944:   -816  67   9  910
1477470530.945:   -785  67   9  910
1477470530.946:   -754  67   9  910
1477470530.946:   -722  67   9  910
1477470530.947:   -690  67   9  910
1477470530.948:   -664  67   9  910
1477470530.951:   -651  67   9  910
1477470530.951:   -646  67   9  910
1477470530.967:   -645  67   9  910
1477470530.967:   -643  67   9  910
1477470530.967:   -637  67   9  910
1477470530.968:   -626  67   9  910
1477470530.968:   -610  67   9  910
1477470530.968:   -592  67   9  910
1477470530.968:   -576  67   9  910
1477470530.968:   -560  67   9  910
1477470530.969:   -535  67   9  910
1477470530.972:   -498  67   9  910
1477470530.973:   -458  67   9  910
1477470530.977:   -426  67   9  910
1477470530.977:   -406  67   9  910
1477470530.979:   -391  67   9  910
1477470530.980:   -375  67   9  910
1477470530.986:   -358  67   9  910
1477470530.994:   -346  67   9  910
1477470531.013:   -341  67   9  910
1477470531.024:   -339  67   9  910
1477470531.024:   -334  67   9  910
1477470531.024:   -322  67   9  910
1477470531.024:   -304  67   9  910
1477470531.024:   -282  67   9  910
1477470531.024:   -257  67   9  910
1477470531.025:   -231  67   9  910
1477470531.025:   -209  67   9  910
1477470531.025:   -193  67   9  910
1477470531.025:   -189  67   9  910
1477470531.025:   -200  67   9  910
1477470531.025:   -221  67   9  910
1477470531.025:   -241  67   9  910
1477470531.026:   -247  67   9  910
1477470531.026:   -241  67   9  910
1477470531.026:   -233  67   9  910
1477470531.027:   -230  67   9  910
1477470531.027:   -226  67   9  910
1477470531.030:   -206  67   9  910
1477470531.030:   -166  67   9  910
1477470531.030:   -122  67   9  910
1477470531.030:    -94  67   9  910
1477470531.034:    -87  67   9  910
1477470531.035:    -88  67   9  910
1477470531.036:    -80  67   9  910
1477470531.041:    -66  67   9  910
1477470531.049:    -58  67   9  910
1477470531.050:    -63  67   9  910
1477470531.050:    -69  67   9  910
1477470531.050:    -61  67   9  910
1477470531.050:    -40  67   9  910
1477470531.050:    -23  67   9  910
1477470531.051:    -19  67   9  910
1477470531.054:    -18  67   9  910
1477470531.056:     -3  67   9  910
1477470531.058:     25  67   9  910
1477470531.059:     46  67   9  910
1477470531.063:     43  67   9  910
1477470531.064:     27  67   9  910
1477470531.070:     20  67   9  910
1477470531.070:     31  67   9  910
1477470531.070:     48  67   9  910
1477470531.072:     54  67   9  910
1477470531.074:     48  67   9  910
1477470531.087:     42  67   9  910
1477470531.088:     43  67   9  910
1477470531.088:     48  67   9  910
1477470531.088:     52  67   9  910
1477470531.088:     53  67   9  910
1477470531.088:     54  67   9  910
1477470531.088:     54  67   9  910
1477470531.090:     56  67   9  910
1477470531.092:     61  67   9  910
1477470531.096:     71  67   9  910
1477470531.096:     78  67   9  910
1477470531.098:     76  67   9  910
1477470531.110:     64  67   9  910
1477470531.110:     51  67   9  910
1477470531.110:     45  67   9  910
1477470531.110:     43  67   9  910
1477470531.114:     37  67   9  910
1477470531.114:     24  67   9  910
1477470531.115:      9  67   9  910
1477470531.115:      2  67   9  910
1477470531.115:      9  67   9  910
1477470531.117:     22  67   9  910
1477470531.119:     32  67   9  910
1477470531.120:     34  67   9  910
1477470531.123:     33  67   9  910
1477470531.124:     37  67   9  910
1477470531.130:     46  67   9  910
1477470531.130:     54  67   9  910
1477470531.131:     51  67   9  910
1477470531.133:     43  67   9  910
1477470531.134:     41  67   9  910
1477470531.137:     52  67   9  910
1477470531.148:     65  67   9  910
1477470531.148:     67  67   9  910
1477470531.148:     55  67   9  910
1477470531.148:     46  67   9  910
1477470531.149:     54  67   9  910
1477470531.149:     72  67   9  910
1477470531.150:     81  67   9  910
1477470531.152:     76  67   9  910
1477470531.156:     69  67   9  910
1477470531.156:     74  67   9  910
1477470531.158:     86  67   9  910
1477470531.159:     90  67   9  910
1477470531.169:     77  67   9  910
1477470531.170:     61  67   9  910
1477470531.170:     57  67   9  910
1477470531.170:     67  67   9  910
1477470531.170:     75  67   9  910
1477470531.172:     71  67   9  910
1477470531.173:     56  67   9  910
1477470531.176:     47  67   9  910
1477470531.181:     56  67   9  910
1477470531.182:     79  67   9  910
1477470531.184:     99  67   9  910
1477470531.184:    103  67   9  910
1477470531.188:     94  67   9  910
1477470531.188:     88  67   9  910
1477470531.190:     94  67   9  910
1477470531.192:    110  67   9  910
1477470531.193:    122  67   9  910
1477470531.197:    119  67   9  910
1477470531.208:    103  67   9  910
1477470531.208:     85  67   9  910
1477470531.209:     71  67   9  910
1477470531.209:     62  67   9  910
1477470531.210:     55  67   9  910
1477470531.210:     49  67   9  910
1477470531.213:     44  67   9  910
1477470531.214:     38  67   9  910
1477470531.214:     34  67   9  910
1477470531.215:     37  67   9  910
1477470531.217:     49  67   9  910
1477470531.219:     67  67   9  910
1477470531.231:     81  67   9  910
1477470531.231:     87  67   9  910
1477470531.231:     88  67   9  910
1477470531.247:     90  67   9  910
1477470531.248:     96  67   9  910
1477470531.249:    100  67   9  910
1477470531.252:    100  67   9  910
1477470531.252:     98  67   9  910
1477470531.253:    101  67   9  910
1477470531.253:    114  67   9  910
1477470531.253:    138  67   9  910
1477470531.253:    168  67   9  910
1477470531.253:    195  67   9  910
1477470531.256:    212  67   9  910
1477470531.256:    219  67   9  910
1477470531.257:    227  67   9  910
1477470531.257:    241  67   9  910
1477470531.257:    259  67   9  910
1477470531.258:    264  67   9  910
1477470531.259:    243  67   9  910
1477470531.263:    199  67   9  910
1477470531.265:    157  67   9  910
1477470531.277:    148  67   9  910
1477470531.280:    183  67   9  910
1477470531.280:    241  67   9  910
1477470531.281:    288  67   9  910
1477470531.281:    307  67   9  910
1477470531.284:    312  67   9  910
1477470531.284:    329  67   9  910
1477470531.284:    364  67   9  910
1477470531.285:    392  67   9  910
1477470531.285:    383  67   9  910
1477470531.286:    333  67   9  910
1477470531.286:    270  67   9  910
1477470531.298:    219  67   9  910
1477470531.298:    188  67   9  910
1477470531.298:    172  67   9  910
1477470531.298:    171  67   9  910
1477470531.299:    195  67   9  910
1477470531.299:    243  67   9  910
1477470531.299:    301  67   9  910
1477470531.302:    348  67   9  910
1477470531.307:    376  67   9  910
1477470531.307:    394  67   9  910
1477470531.308:    406  67   9  910
1477470531.309:    409  67   9  910
1477470531.312:    393  67   9  910
1477470531.313:    359  67   9  910
1477470531.315:    322  67   9  910
1477470531.321:    293  67   9  910
1477470531.321:    276  67   9  910
1477470531.322:    261  67   9  910
1477470531.326:    246  67   9  910
1477470531.327:    236  67   9  910
1477470531.338:    237  67   9  910
1477470531.339:    239  67   9  910
1477470531.339:    224  67   9  910
1477470531.340:    179  67   9  910
1477470531.341:    117  67   9  910
1477470531.341:     64  67   9  910
1477470531.341:     34  67   9  910
1477470531.341:     19  67   9  910
1477470531.345:      7  67   9  910
1477470531.348:     -7  67   9  910
1477470531.348:    -16  67   9  910
1477470531.350:    -23  67   9  910
1477470531.362:    -35  67   9  910
1477470531.362:    -53  67   9  910
1477470531.363:    -69  67   9  910
1477470531.363:    -72  67   9  910
1477470531.363:    -71  67   9  910
1477470531.364:    -80  67   9  910
1477470531.364:   -102  67   9  910
1477470531.364:   -122  67   9  910
1477470531.366:   -123  67   9  910
1477470531.368:   -107  67   9  910
1477470531.373:    -93  67   9  910
1477470531.375:    -91  67   9  910
1477470531.375:    -90  67   9  910
1477470531.377:    -79  67   9  910
1477470531.380:    -63  67   9  910
1477470531.381:    -56  67   9  910
1477470531.382:    -62  67   9  910
1477470531.384:    -64  67   9  910
1477470531.389:    -46  67   9  910
1477470531.389:    -17  67   9  910
1477470531.391:     -8  67   9  910
1477470531.392:    -31  67   9  910
1477470531.413:    -60  67   9  910
1477470531.413:    -64  67   9  910
1477470531.413:    -51  67   9  910
1477470531.413:    -69  67   9  910
1477470531.414:   -133  67   9  910
1477470531.414:   -186  67   9  910
1477470531.414:   -153  67   9  910
1477470531.415:    -36  67   9  910
1477470531.415:     79  67   9  910
1477470531.415:    133  67   9  910
1477470531.416:    179  67   9  910
1477470531.416:    324  67   9  910
1477470531.418:    590  67   9  910
1477470531.419:    880  67   9  910
1477470531.421:   1086  67   9  910
1477470531.423:   1189  67   9  910
1477470531.425:   1219  67   9  910
1477470531.430:   1146  67   9  910
1477470531.439:    887  67   9  910
1477470531.439:    452  67   9  910
1477470531.439:     -8  67   9  910
1477470531.439:   -348  67   9  910
1477470531.439:   -584  67   9  910
1477470531.440:   -851  67   9  910
1477470531.444:  -1199  67   9  910
1477470531.444:  -1500  67   9  910
1477470531.446:  -1609  67   9  910
1477470531.448:  -1565  67   9  910
1477470531.450:  -1565  67   9  910
1477470531.450:  -1754  67   9  910
1477470531.453:  -2095  67   9  910
1477470531.458:  -2460  67   9  910
1477470531.466:  -2785  68   9  908
1477470531.466:  -3088  68   9  908
1477470531.467:  -3351  68   9  908
1477470531.467:  -3477  68   9  908
1477470531.467:  -3391  68   9  908
1477470531.468:  -3121  68   9  908
1477470531.468:  -2757  68   9  908
1477470531.474:  -2346  68   9  908
1477470531.476:  -1873  68   9  908
1477470531.476:  -1337  68   9  908
1477470531.476:   -818  68   9  908
1477470531.481:   -417  68   9  908
1477470531.481:   -176  68   9  908
1477470531.482:    -60  68   9  908
1477470531.484:    -11  68   9  908
1477470531.486:      6  68   9  908
1477470531.490:     16  68   9  908
1477470531.490:     60  68   9  908
1477470531.492:    170  68   9  908
1477470531.493:    342  68   9  908
1477470531.498:    532  68   9  908
1477470531.498:    688  68   9  908
1477470531.499:    795  68   9  908
1477470531.503:    868  68   9  908
1477470531.516:    916  68   9  908
1477470531.516:    929  68   9  908
1477470531.516:    899  68   9  908
1477470531.516:    846  68   9  908
1477470531.516:    808  68   9  908
1477470531.517:    813  68   9  908
1477470531.518:    856  68   9  908
1477470531.518:    906  68   9  908
1477470531.519:    943  68   9  908
1477470531.520:    971  68   9  908
1477470531.524:   1000  68   9  908
1477470531.525:   1026  68   9  908
1477470531.527:   1031  68   9  908
1477470531.531:   1014  68   9  908
1477470531.543:    995  68   9  908
1477470531.543:    997  68   9  908
1477470531.543:   1019  68   9  908
1477470531.543:   1037  68   9  908
1477470531.543:   1038  68   9  908
1477470531.543:   1031  68   9  908
1477470531.546:   1032  68   9  908
1477470531.546:   1042  68   9  908
1477470531.547:   1049  68   9  908
1477470531.549:   1045  68   9  908
1477470531.551:   1041  68   9  908
1477470531.553:   1050  68   9  908
1477470531.567:   1072  68   9  908
1477470531.567:   1098  68   9  908
1477470531.568:   1121  68   9  908
1477470531.568:   1145  68   9  908
1477470531.568:   1173  68   9  908
1477470531.568:   1199  68   9  908
1477470531.568:   1218  68   9  908
1477470531.576:   1235  68   9  908
1477470531.576:   1254  68   9  908
1477470531.576:   1269  68   9  908
1477470531.580:   1268  68   9  908
1477470531.581:   1258  68   9  908
1477470531.581:   1258  68   9  908
1477470531.581:   1284  68   9  908
1477470531.583:   1327  68   9  908
1477470531.586:   1360  68   9  908
1477470531.586:   1375  68   9  908
1477470531.590:   1391  68   9  908
1477470531.600:   1433  68   9  908
1477470531.601:   1496  68   9  908
1477470531.601:   1558  68   9  908
1477470531.601:   1601  68   9  908
1477470531.601:   1635  68   9  908
1477470531.601:   1678  68   9  908
1477470531.601:   1737  68   9  908
1477470531.604:   1800  68   9  908
1477470531.605:   1854  68   9  908
1477470531.606:   1903  68   9  908
1477470531.613:   1955  68   9  908
1477470531.613:   2015  68   9  908
1477470531.623:   2085  68   9  908
1477470531.623:   2161  68   9  908
1477470531.623:   2239  68   9  908
1477470531.623:   2311  68   9  908
1477470531.623:   2373  68   9  908
1477470531.625:   2434  68   9  908
1477470531.625:   2506  68   9  908
1477470531.627:   2589  68   9  908
1477470531.629:   2670  68   9  908
1477470531.630:   2738  68   9  908
1477470531.636:   2798  68   9  908
1477470531.637:   2865  68   9  908
1477470531.646:   2942  68   9  908
1477470531.647:   3018  68   9  908
1477470531.647:   3079  68   9  908
1477470531.647:   3129  68   9  908
1477470531.648:   3177  68   9  908
1477470531.648:   3225  68   9  908
1477470531.649:   3265  68   9  908
1477470531.654:   3295  68   9  908
1477470531.654:   3327  68   9  908
1477470531.656:   3367  68   9  908
1477470531.657:   3409  68   9  908
1477470531.659:   3437  68   9  908
1477470531.661:   3448  68   9  908
1477470531.665:   3450  68   9  908
1477470531.669:   3455  68   9  908
1477470531.669:   3459  68   9  908
1477470531.670:   3455  68   9  908
1477470531.670:   3433  68   9  908
1477470531.672:   3395  68   9  908
1477470531.674:   3347  68   9  908
1477470531.688:   3296  68   9  908
1477470531.689:   3241  68   9  908
1477470531.689:   3181  68   9  908
1477470531.690:   3112  68   9  908
1477470531.690:   3034  68   9  908
1477470531.691:   2949  68   9  908
1477470531.691:   2859  68   9  908
1477470531.692:   2763  68   9  908
1477470531.695:   2660  68   9  908
1477470531.696:   2552  68   9  908
1477470531.707:   2442  68   9  908
1477470531.707:   2327  68   9  908
1477470531.707:   2201  68   9  908
1477470531.707:   2061  68   9  908
1477470531.707:   1909  68   9  908
1477470531.708:   1757  68   9  908
1477470531.709:   1608  68   9  908
1477470531.710:   1452  68   9  908
1477470531.712:   1285  68   9  908
1477470531.716:   1113  68   9  908
1477470531.717:    948  68   9  908
1477470531.718:    794  68   9  908
1477470531.723:    642  68   9  908
1477470531.723:    490  68   9  908
1477470531.724:    342  68   9  908
1477470531.726:    214  68   9  908
1477470531.727:    106  68   9  908
1477470531.731:      2  68   9  908
1477470531.732:   -111  68   9  908
1477470531.736:   -229  68   9  908
1477470531.737:   -337  68   9  908
1477470531.740:   -431  68   9  908
1477470531.741:   -519  68   9  908
1477470531.742:   -611  68   9  908
1477470531.758:   -698  68   9  908
1477470531.758:   -769  68   9  908
1477470531.759:   -828  68   9  908
1477470531.759:   -887  68   9  908
1477470531.760:   -949  68   9  908
1477470531.760:   -996  68   9  908
1477470531.760:  -1012  68   9  908
1477470531.760:  -1008  68   9  908
1477470531.761:  -1014  68   9  908
1477470531.764:  -1041  68   9  908
1477470531.765:  -1070  68   9  908
1477470531.765:  -1072  68   9  908
1477470531.766:  -1051  68   9  908
1477470531.830:  -1030  68   9  908
1477470531.830:  -1029  68   9  908
1477470531.830:  -1036  68   9  908
1477470531.830:  -1026  68   9  908
1477470531.831:   -997  68   9  908
1477470531.831:   -965  68   9  908
1477470531.831:   -947  68   9  908
1477470531.831:   -938  68   9  908
1477470531.831:   -921  68   9  908
1477470531.831:   -890  68   9  908
1477470531.832:   -853  68   9  908
1477470531.832:   -821  68   9  908
1477470531.832:   -798  68   9  908
1477470531.832:   -780  68   9  908
1477470531.832:   -763  68   9  908
1477470531.832:   -742  68   9  908
1477470531.832:   -721  68   9  908
1477470531.833:   -706  68   9  908
1477470531.833:   -701  68   9  908
1477470531.833:   -702  68   9  908
1477470531.833:   -699  68   9  908
1477470531.833:   -684  68   9  908
1477470531.834:   -661  68   9  908
1477470531.834:   -640  68   9  908
1477470531.834:   -620  68   9  908
1477470531.834:   -593  68   9  908
1477470531.835:   -551  68   9  908
1477470531.835:   -505  68   9  908
1477470531.835:   -470  68   9  908
1477470531.835:   -450  68   9  908
1477470531.835:   -436  68   9  908
1477470531.835:   -418  68   9  908
1477470531.836:   -394  68   9  908
1477470531.836:   -374  68   9  908
1477470531.839:   -360  68   9  908
1477470531.840:   -347  68   9  908
1477470531.840:   -330  68   9  908
1477470531.841:   -314  68   9  908
1477470531.844:   -306  68   9  908
1477470531.849:   -300  68   9  908
1477470531.850:   -287  68   9  908
1477470531.851:   -268  68   9  908
1477470531.851:   -254  68   9  908
1477470531.853:   -255  68   9  908
1477470531.854:   -264  68   9  908
1477470531.857:   -262  68   9  908
1477470531.859:   -242  68   9  908
1477470531.860:   -218  68   9  908
1477470531.865:   -204  68   9  908
1477470531.879:   -199  68   9  908
1477470531.879:   -189  68   9  908
1477470531.879:   -169  68   9  908
1477470531.880:   -149  68   9  908
1477470531.880:   -145  68   9  908
1477470531.881:   -162  68   9  908
1477470531.881:   -189  68   9  908
1477470531.881:   -209  68   9  908
1477470531.882:   -218  68   9  908
1477470531.883:   -222  68   9  908
1477470531.884:   -229  68   9  908
1477470531.885:   -240  68   9  908
1477470531.894:   -249  68   9  908
1477470531.894:   -251  68   9  908
1477470531.900:   -239  68   9  908
1477470531.900:   -216  68   9  908
1477470531.900:   -190  68   9  908
1477470531.901:   -172  68   9  908
1477470531.901:   -169  68   9  908
1477470531.902:   -176  68   9  908
1477470531.904:   -183  68   9  908
1477470531.905:   -182  68   9  908
1477470531.910:   -177  68   9  908
1477470531.910:   -174  68   9  908
1477470531.925:   -183  68   9  908
1477470531.925:   -199  68   9  908
1477470531.925:   -212  68   9  908
1477470531.925:   -214  68   9  908
1477470531.926:   -207  68   9  908
1477470531.926:   -202  68   9  908
1477470531.926:   -206  68   9  908
1477470531.926:   -210  68   9  908
1477470531.928:   -206  68   9  908
1477470531.929:   -196  68   9  908
1477470531.932:   -194  68   9  908
1477470531.933:   -202  68   9  908
1477470531.937:   -205  68   9  908
1477470531.939:   -183  68   9  908
1477470531.951:   -136  68   9  908
1477470531.952:    -89  68   9  908
1477470531.952:    -62  68   9  908
1477470531.952:    -49  68   9  908
1477470531.952:    -28  68   9  908
1477470531.952:     11  68   9  908
1477470531.953:     53  68   9  908
1477470531.956:     74  68   9  908
1477470531.956:     66  68   9  908
1477470531.960:     44  68   9  908
1477470531.961:     26  68   9  908
1477470531.966:     18  68   9  908
1477470531.978:     10  68   9  908
1477470531.978:     -4  68   9  908
1477470531.978:    -20  68   9  908
1477470531.979:    -31  68   9  908
1477470531.979:    -33  68   9  908
1477470531.979:    -29  68   9  908
1477470531.979:    -23  68   9  908
1477470531.979:    -13  68   9  908
1477470531.979:      3  68   9  908
1477470531.981:     19  68   9  908
1477470531.983:     28  68   9  908
1477470531.987:     28  68   9  908
1477470531.988:     31  68   9  908
1477470531.990:     44  68   9  908
1477470532.002:     64  68   9  908
1477470532.002:     76  68   9  908
1477470532.002:     74  68   9  908
1477470532.003:     70  68   9  908
1477470532.031:     78  68   9  908
1477470532.031:     95  68   9  908
1477470532.040:    105  68   9  908
1477470532.040:     97  68   9  908
1477470532.040:     85  68   9  908
1477470532.040:     83  68   9  908
1477470532.040:     89  68   9  908
1477470532.041:     93  68   9  908
1477470532.041:     90  68   9  908
1477470532.041:     93  68   9  908
1477470532.041:    113  68   9  908
1477470532.041:    138  68   9  908
1477470532.041:    156  68   9  908
1477470532.041:    169  68   9  908
1477470532.042:    187  68   9  908
1477470532.042:    211  68   9  908
1477470532.042:    224  68   9  908
1477470532.042:    215  68   9  908
1477470532.042:    193  68   9  908
1477470532.042:    178  68   9  908
1477470532.043:    172  68   9  908
1477470532.043:    160  68   9  908
1477470532.046:    132  68   9  908
1477470532.046:    101  68   9  908
1477470532.048:     90  68   9  908
1477470532.048:    102  68   9  908
1477470532.052:    118  68   9  908
1477470532.052:    127  68   9  908
1477470532.059:    132  68   9  908
1477470532.060:    141  68   9  908
1477470532.065:    154  68   9  908
1477470532.065:    159  68   9  908
1477470532.066:    153  68   9  908
1477470532.067:    144  68   9  908
1477470532.067:    140  68   9  908
1477470532.070:    134  68   9  908
1477470532.070:    118  68   9  908
1477470532.072:     96  68   9  908
1477470532.074:     83  68   9  908
1477470532.074:     85  68   9  908
1477470532.077:     92  68   9  908
1477470532.079:     93  68   9  908
1477470532.080:     90  68   9  908
1477470532.083:     95  68   9  908
1477470532.084:    112  68   9  908
1477470532.088:    133  68   9  908
1477470532.089:    144  68   9  908
1477470532.091:    144  68   9  908
1477470532.092:    146  68   9  908
1477470532.095:    159  68   9  908
1477470532.105:    177  68   9  908
1477470532.105:    191  68   9  908
1477470532.105:    195  68   9  908
1477470532.105:    193  68   9  908
1477470532.106:    191  68   9  908
1477470532.106:    191  68   9  908
1477470532.108:    188  68   9  908
1477470532.110:    180  68   9  908
1477470532.112:    167  68   9  908
1477470532.116:    155  68   9  908
1477470532.128:    149  68   9  908
1477470532.128:    153  68   9  908
1477470532.128:    167  68   9  908
1477470532.129:    184  68   9  908
1477470532.129:    195  68   9  908
1477470532.129:    195  68   9  908
1477470532.130:    194  68   9  908
1477470532.130:    201  68   9  908
1477470532.132:    216  68   9  908
1477470532.135:    227  68   9  908
1477470532.135:    219  68   9  908
1477470532.138:    192  68   9  908
1477470532.139:    163  68   9  908
1477470532.145:    160  68   9  908
1477470532.150:    189  68   9  908
1477470532.151:    232  68   9  908
1477470532.151:    259  68   9  908
1477470532.151:    262  68   9  908
1477470532.152:    257  68   9  908
1477470532.157:    272  68   9  908
1477470532.157:    317  68   9  908
1477470532.158:    366  68   9  908
1477470532.159:    381  68   9  908
1477470532.161:    344  68   9  908
1477470532.183:    279  68   9  908
1477470532.183:    228  68   9  908
1477470532.183:    220  68   9  908
1477470532.183:    245  68   9  908
1477470532.183:    272  68   9  908
1477470532.185:    283  68   9  908
1477470532.185:    283  68   9  908
1477470532.185:    298  68   9  908
1477470532.185:    338  68   9  908
1477470532.185:    390  68   9  908
1477470532.186:    427  68   9  908
1477470532.186:    429  68   9  908
1477470532.189:    400  68   9  908
1477470532.189:    355  68   9  908
1477470532.190:    311  68   9  908
1477470532.192:    276  68   9  908
1477470532.197:    252  68   9  908
1477470532.198:    241  68   9  908
1477470532.217:    242  68   9  908
1477470532.218:    255  68   9  908
1477470532.218:    273  68   9  908
1477470532.218:    290  68   9  908
1477470532.219:    302  68   9  908
1477470532.219:    315  68   9  908
1477470532.220:    327  68   9  908
1477470532.220:    333  68   9  908
1477470532.220:    325  68   9  908
1477470532.220:    299  68   9  908
1477470532.220:    267  68   9  908
1477470532.221:    244  68   9  908
1477470532.225:    231  68   9  908
1477470532.225:    220  68   9  908
1477470532.227:    195  68   9  908
1477470532.229:    160  68   9  908
1477470532.243:    127  68   9  908
1477470532.243:    106  68   9  908
1477470532.243:     86  68   9  908
1477470532.244:     47  68   9  908
1477470532.244:    -15  68   9  908
1477470532.244:    -77  68   9  908
1477470532.245:   -113  68   9  908
1477470532.246:   -115  68   9  908
1477470532.246:   -104  68   9  908
1477470532.248:   -105  68   9  908
1477470532.252:   -123  68   9  908
1477470532.252:   -143  68   9  908
1477470532.264:   -146  68   9  908
1477470532.265:   -133  68   9  908
1477470532.265:   -119  68   9  908
1477470532.265:   -124  68   9  908
1477470532.265:   -151  68   9  908
1477470532.266:   -188  68   9  908
1477470532.266:   -216  68   9  908
1477470532.298:   -230  68   9  908
1477470532.302:   -234  68   9  908
1477470532.302:   -237  68   9  908
1477470532.303:   -241  68   9  908
1477470532.303:   -239  68   9  908
1477470532.303:   -229  68   9  908
1477470532.303:   -216  68   9  908
1477470532.303:   -210  68   9  908
1477470532.303:   -215  68   9  908
1477470532.304:   -225  68   9  908
1477470532.304:   -227  68   9  908
1477470532.304:   -219  68   9  908
1477470532.304:   -209  68   9  908
1477470532.304:   -209  68   9  908
1477470532.304:   -221  68   9  908
1477470532.304:   -233  68   9  908
1477470532.305:   -231  68   9  908
1477470532.305:   -217  68   9  908
1477470532.305:   -209  68   9  908
1477470532.308:   -217  68   9  908
1477470532.308:   -224  68   9  908
1477470532.310:   -192  68   9  908
1477470532.311:   -112  68   9  908
1477470532.312:    -24  68   9  908
1477470532.315:     31  68   9  908
1477470532.319:     67  68   9  908
1477470532.322:    156  68   9  908
1477470532.332:    363  68   9  908
1477470532.332:    677  68   9  908
1477470532.332:   1011  68   9  908
1477470532.332:   1280  68   9  908
1477470532.333:   1439  68   9  908
1477470532.333:   1478  68   9  908
1477470532.335:   1386  68   9  908
1477470532.335:   1155  68   9  908
1477470532.337:    808  68   9  908
1477470532.338:    407  68   9  908
1477470532.339:     14  68   9  908
1477470532.342:   -334  68   9  908
1477470532.345:   -624  68   9  908
1477470532.349:   -860  68   9  908
1477470532.349:  -1059  68   9  908
1477470532.351:  -1244  68   9  908
1477470532.352:  -1432  68   9  908
1477470532.353:  -1619  68   9  908
1477470532.365:  -1809  68   9  908
1477470532.367:  -2044  68   9  908
1477470532.368:  -2374  68   9  908
1477470532.368:  -2789  68   9  908
1477470532.369:  -3178  68   9  908
1477470532.369:  -3391  68   9  908
1477470532.372:  -3362  68   9  908
1477470532.373:  -3142  68   9  908
1477470532.374:  -2838  68   9  908
1477470532.376:  -2511  68   9  908
1477470532.408:  -2150  67   9  906
1477470532.408:  -1731  67   9  906
1477470532.408:  -1279  67   9  906
1477470532.409:   -868  67   9  906
1477470532.409:   -571  67   9  906
1477470532.409:   -415  67   9  906
1477470532.409:   -383  67   9  906
1477470532.410:   -424  67   9  906
1477470532.410:   -469  67   9  906
1477470532.410:   -471  67   9  906
1477470532.410:   -411  67   9  906
1477470532.410:   -298  67   9  906
1477470532.411:   -157  67   9  906
1477470532.412:    -15  67   9  906
1477470532.412:    104  67   9  906
1477470532.412:    178  67   9  906
1477470532.412:    193  67   9  906
1477470532.413:    164  67   9  906
1477470532.413:    118  67   9  906
1477470532.413:     88  67   9  906
1477470532.414:     86  67   9  906
1477470532.417:     99  67   9  906
1477470532.418:    110  67   9  906
1477470532.422:    117  67   9  906
1477470532.425:    124  67   9  906
1477470532.425:    134  67   9  906
1477470532.427:    139  67   9  906
1477470532.428:    131  67   9  906
1477470532.431:    110  67   9  906
1477470532.431:     88  67   9  906
1477470532.444:     81  67   9  906
1477470532.444:     93  67   9  906
1477470532.444:    117  67   9  906
1477470532.444:    142  67   9  906
1477470532.445:    157  67   9  906
1477470532.445:    157  67   9  906
1477470532.450:    146  67   9  906
1477470532.450:    135  67   9  906
1477470532.450:    135  67   9  906
1477470532.452:    143  67   9  906
1477470532.453:    150  67   9  906
1477470532.455:    150  67   9  906
1477470532.465:    151  67   9  906
1477470532.465:    168  67   9  906
1477470532.465:    202  67   9  906
1477470532.466:    237  67   9  906
1477470532.466:    256  67   9  906
1477470532.468:    262  67   9  906
1477470532.470:    270  67   9  906
1477470532.471:    287  67   9  906
1477470532.473:    301  67   9  906
1477470532.479:    301  67   9  906
1477470532.480:    296  67   9  906
1477470532.480:    303  67   9  906
1477470532.482:    330  67   9  906
1477470532.483:    365  67   9  906
1477470532.484:    391  67   9  906
1477470532.487:    409  67   9  906
1477470532.491:    433  67   9  906
1477470532.491:    468  67   9  906
1477470532.493:    505  67   9  906
1477470532.495:    532  67   9  906
1477470532.497:    553  67   9  906
1477470532.499:    581  67   9  906
1477470532.516:    620  67   9  906
1477470532.516:    659  67   9  906
1477470532.516:    690  67   9  906
1477470532.517:    718  67   9  906
1477470532.517:    759  67   9  906
1477470532.518:    817  67   9  906
1477470532.518:    878  67   9  906
1477470532.519:    928  67   9  906
1477470532.519:    971  67   9  906
1477470532.520:   1021  67   9  906
1477470532.523:   1085  67   9  906
1477470532.523:   1157  67   9  906
1477470532.536:   1224  67   9  906
1477470532.536:   1283  67   9  906
1477470532.536:   1341  67   9  906
1477470532.537:   1403  67   9  906
1477470532.537:   1466  67   9  906
1477470532.537:   1528  67   9  906
1477470532.538:   1593  67   9  906
1477470532.542:   1664  67   9  906
1477470532.542:   1735  67   9  906
1477470532.544:   1795  67   9  906
1477470532.544:   1842  67   9  906
1477470532.546:   1886  67   9  906
1477470532.550:   1933  67   9  906
1477470532.551:   1981  67   9  906
1477470532.552:   2020  67   9  906
1477470532.554:   2048  67   9  906
1477470532.559:   2072  67   9  906
1477470532.559:   2098  67   9  906
1477470532.571:   2126  67   9  906
1477470532.571:   2147  67   9  906
1477470532.571:   2160  67   9  906
1477470532.571:   2166  67   9  906
1477470532.572:   2165  67   9  906
1477470532.573:   2149  67   9  906
1477470532.574:   2113  67   9  906
1477470532.574:   2066  67   9  906
1477470532.576:   2026  67   9  906
1477470532.577:   2000  67   9  906
1477470532.581:   1973  67   9  906
1477470532.583:   1929  67   9  906
1477470532.590:   1861  67   9  906
1477470532.590:   1785  67   9  906
1477470532.590:   1717  67   9  906
1477470532.590:   1656  67   9  906
1477470532.591:   1588  67   9  906
1477470532.593:   1500  67   9  906
1477470532.596:   1395  67   9  906
1477470532.600:   1285  67   9  906
1477470532.600:   1172  67   9  906
1477470532.602:   1056  67   9  906
1477470532.603:    933  67   9  906
1477470532.604:    807  67   9  906
1477470532.607:    677  67   9  906
1477470532.609:    545  67   9  906
1477470532.614:    407  67   9  906
1477470532.614:    264  67   9  906
1477470532.616:    124  67   9  906
1477470532.617:     -8  67   9  906
1477470532.618:   -131  67   9  906
1477470532.621:   -248  67   9  906
1477470532.623:   -366  67   9  906
1477470532.628:   -489  67   9  906
1477470532.640:   -612  67   9  906
1477470532.641:   -728  67   9  906
1477470532.641:   -831  67   9  906
1477470532.641:   -924  67   9  906
1477470532.642:  -1013  67   9  906
1477470532.642:  -1103  67   9  906
1477470532.642:  -1194  67   9  906
1477470532.643:  -1285  67   9  906
1477470532.644:  -1374  67   9  906
1477470532.645:  -1454  67   9  906
1477470532.646:  -1518  67   9  906
1477470532.649:  -1565  67   9  906
1477470532.659:  -1606  67   9  906
1477470532.659:  -1652  67   9  906
1477470532.659:  -1703  67   9  906
1477470532.660:  -1743  67   9  906
1477470532.660:  -1766  67   9  906
1477470532.660:  -1779  67   9  906
1477470532.665:  -1801  67   9  906
1477470532.665:  -1833  67   9  906
1477470532.668:  -1859  67   9  906
1477470532.670:  -1866  67   9  906
1477470532.672:  -1862  67   9  906
1477470532.673:  -1861  67   9  906
1477470532.674:  -1867  67   9  906
1477470532.677:  -1868  67   9  906
1477470532.680:  -1850  67   9  906
1477470532.684:  -1821  67   9  906
1477470532.684:  -1797  67   9  906
1477470532.684:  -1785  67   9  906
1477470532.685:  -1772  67   9  906
1477470532.687:  -1744  67   9  906
1477470532.689:  -1701  67   9  906
1477470532.692:  -1659  67   9  906
1477470532.693:  -1633  67   9  906
1477470532.695:  -1619  67   9  906
1477470532.708:  -1601  67   9  906
1477470532.708:  -1571  67   9  906
1477470532.780:  -1537  67   9  906
1477470532.781:  -1515  67   9  906
1477470532.781:  -1508  67   9  906
1477470532.781:  -1500  67   9  906
1477470532.781:  -1473  67   9  906
1477470532.781:  -1432  67   9  906
1477470532.781:  -1394  67   9  906
1477470532.782:  -1375  67   9  906
1477470532.782:  -1364  67   9  906
1477470532.782:  -1344  67   9  906
1477470532.782:  -1308  67   9  906
1477470532.782:  -1267  67   9  906
1477470532.782:  -1235  67   9  906
1477470532.783:  -1217  67   9  906
1477470532.783:  -1203  67   9  906
1477470532.783:  -1185  67   9  906
1477470532.783:  -1158  67   9  906
1477470532.783:  -1126  67   9  906
1477470532.783:  -1092  67   9  906
1477470532.783:  -1060  67   9  906
1477470532.784:  -1035  67   9  906
1477470532.784:  -1015  67   9  906
1477470532.784:   -995  67   9  906
1477470532.784:   -975  67   9  906
1477470532.784:   -962  67   9  906
1477470532.784:   -964  67   9  906
1477470532.784:   -975  67   9  906
1477470532.785:   -977  67   9  906
1477470532.785:   -964  67   9  906
1477470532.785:   -944  67   9  906
1477470532.785:   -933  67   9  906
1477470532.785:   -934  67   9  906
1477470532.785:   -927  67   9  906
1477470532.785:   -901  67   9  906
1477470532.786:   -863  67   9  906
1477470532.786:   -834  67   9  906
1477470532.786:   -827  67   9  906
1477470532.786:   -836  67   9  906
1477470532.786:   -839  67   9  906
1477470532.786:   -829  67   9  906
1477470532.787:   -811  67   9  906
1477470532.787:   -797  67   9  906
1477470532.787:   -787  67   9  906
1477470532.787:   -776  67   9  906
1477470532.787:   -760  67   9  906
1477470532.790:   -745  67   9  906
1477470532.812:   -735  67   9  906
1477470532.812:   -725  67   9  906
1477470532.812:   -711  67   9  906
1477470532.813:   -695  67   9  906
1477470532.813:   -684  67   9  906
1477470532.813:   -688  67   9  906
1477470532.814:   -702  67   9  906
1477470532.814:   -712  67   9  906
1477470532.814:   -705  67   9  906
1477470532.814:   -684  67   9  906
1477470532.815:   -665  67   9  906
1477470532.815:   -659  67   9  906
1477470532.815:   -666  67   9  906
1477470532.816:   -673  67   9  906
1477470532.819:   -670  67   9  906
1477470532.822:   -657  67   9  906
1477470532.824:   -645  67   9  906
1477470532.824:   -647  67   9  906
1477470532.828:   -657  67   9  906
1477470532.829:   -665  67   9  906
1477470532.839:   -662  67   9  906
1477470532.840:   -654  67   9  906
1477470532.840:   -654  67   9  906
1477470532.840:   -661  67   9  906
1477470532.840:   -664  67   9  906
1477470532.843:   -656  67   9  906
1477470532.843:   -644  67   9  906
1477470532.845:   -643  67   9  906
1477470532.851:   -653  67   9  906
1477470532.851:   -657  67   9  906
1477470532.851:   -642  67   9  906
1477470532.853:   -614  67   9  906
1477470532.857:   -594  67   9  906
1477470532.857:   -594  67   9  906
1477470532.858:   -602  67   9  906
1477470532.862:   -603  67   9  906
1477470532.873:   -594  67   9  906
1477470532.874:   -588  67   9  906
1477470532.874:   -593  67   9  906
1477470532.874:   -604  67   9  906
1477470532.874:   -607  67   9  906
1477470532.875:   -600  67   9  906
1477470532.875:   -587  67   9  906
1477470532.879:   -577  67   9  906
1477470532.879:   -572  67   9  906
1477470532.880:   -571  67   9  906
1477470532.882:   -571  67   9  906
1477470532.883:   -568  67   9  906
1477470532.889:   -560  67   9  906
1477470532.889:   -550  67   9  906
1477470532.892:   -545  67   9  906
1477470532.893:   -549  67   9  906
1477470532.894:   -552  67   9  906
1477470532.895:   -544  67   9  906
1477470532.918:   -522  67   9  906
1477470532.918:   -497  67   9  906
1477470532.919:   -479  67   9  906
1477470532.919:   -468  67   9  906
1477470532.919:   -456  67   9  906
1477470532.920:   -438  67   9  906
1477470532.922:   -422  67   9  906
1477470532.922:   -413  67   9  906
1477470532.922:   -410  67   9  906
1477470532.923:   -403  67   9  906
1477470532.923:   -394  67   9  906
1477470532.923:   -392  67   9  906
1477470532.923:   -401  67   9  906
1477470532.923:   -411  67   9  906
1477470532.924:   -411  67   9  906
1477470532.928:   -398  67   9  906
1477470532.929:   -385  67   9  906
1477470532.933:   -383  67   9  906
1477470532.941:   -391  67   9  906
1477470532.941:   -397  67   9  906
1477470532.941:   -389  67   9  906
1477470532.942:   -366  67   9  906
1477470532.942:   -337  67   9  906
1477470532.943:   -313  67   9  906
1477470532.947:   -300  67   9  906
1477470532.947:   -295  67   9  906
1477470532.949:   -289  67   9  906
1477470532.950:   -275  67   9  906
1477470532.962:   -254  67   9  906
1477470532.962:   -240  67   9  906
1477470532.962:   -242  67   9  906
1477470532.962:   -255  67   9  906
1477470532.962:   -262  67   9  906
1477470532.963:   -252  67   9  906
1477470532.964:   -232  67   9  906
1477470532.965:   -219  67   9  906
1477470532.968:   -221  67   9  906
1477470532.970:   -232  67   9  906
1477470532.975:   -238  67   9  906
1477470532.975:   -234  67   9  906
1477470532.977:   -224  67   9  906
1477470532.980:   -217  67   9  906
1477470532.980:   -216  67   9  906
1477470532.983:   -219  67   9  906
1477470532.985:   -217  67   9  906
1477470532.989:   -206  67   9  906
1477470532.989:   -190  67   9  906
1477470532.991:   -178  67   9  906
1477470533.009:   -172  67   9  906
1477470533.010:   -165  67   9  906
1477470533.011:   -146  67   9  906
1477470533.013:   -116  67   9  906
1477470533.013:    -91  67   9  906
1477470533.014:    -80  67   9  906
1477470533.037:    -76  67   9  906
1477470533.038:    -65  67   9  906
1477470533.039:    -48  67   9  906
1477470533.039:    -42  67   9  906
1477470533.039:    -59  67   9  906
1477470533.041:    -88  67   9  906
1477470533.041:   -105  67   9  906
1477470533.042:    -99  67   9  906
1477470533.042:    -85  67   9  906
1477470533.043:    -80  67   9  906
1477470533.045:    -85  67   9  906
1477470533.045:    -84  67   9  906
1477470533.045:    -67  67   9  906
1477470533.046:    -41  67   9  906
1477470533.047:    -24  67   9  906
1477470533.047:    -16  67   9  906
1477470533.048:    -10  67   9  906
1477470533.048:      0  67   9  906
1477470533.049:     12  67   9  906
1477470533.050:     26  67   9  906
1477470533.050:     46  67   9  906
1477470533.050:     73  67   9  906
1477470533.051:    100  67   9  906
1477470533.052:    115  67   9  906
1477470533.063:    116  67   9  906
1477470533.063:    120  67   9  906
1477470533.064:    140  67   9  906
1477470533.064:    169  67   9  906
1477470533.064:    186  67   9  906
1477470533.065:    172  67   9  906
1477470533.065:    133  67   9  906
1477470533.066:     91  67   9  906
1477470533.067:     72  67   9  906
1477470533.068:     87  67   9  906
1477470533.069:    128  67   9  906
1477470533.077:    172  67   9  906
1477470533.093:    203  67   9  906
1477470533.095:    222  67   9  906
1477470533.096:    244  67   9  906
1477470533.096:    275  67   9  906
1477470533.096:    302  67   9  906
1477470533.096:    298  67   9  906
1477470533.096:    252  67   9  906
1477470533.097:    184  67   9  906
1477470533.097:    124  67   9  906
1477470533.097:     91  67   9  906
1477470533.097:     77  67   9  906
1477470533.097:     69  67   9  906
1477470533.098:     69  67   9  906
1477470533.099:     89  67   9  906
1477470533.106:    132  67   9  906
1477470533.106:    189  67   9  906
1477470533.107:    242  67   9  906
1477470533.108:    277  67   9  906
1477470533.109:    292  67   9  906
1477470533.111:    290  67   9  906
1477470533.125:    279  67   9  906
1477470533.125:    271  67   9  906
1477470533.125:    273  67   9  906
1477470533.126:    279  67   9  906
1477470533.126:    271  67   9  906
1477470533.126:    241  67   9  906
1477470533.126:    205  67   9  906
1477470533.126:    189  67   9  906
1477470533.129:    200  67   9  906
1477470533.130:    217  67   9  906
1477470533.135:    207  67   9  906
1477470533.136:    160  67   9  906
1477470533.138:     95  67   9  906
1477470533.138:     40  67   9  906
1477470533.144:      8  67   9  906
1477470533.144:     -6  67   9  906
1477470533.157:    -15  67   9  906
1477470533.157:    -26  67   9  906
1477470533.158:    -31  67   9  906
1477470533.158:    -25  67   9  906
1477470533.158:    -11  67   9  906
1477470533.159:      1  67   9  906
1477470533.159:     -1  67   9  906
1477470533.160:    -20  67   9  906
1477470533.163:    -45  67   9  906
1477470533.163:    -64  67   9  906
1477470533.165:    -72  67   9  906
1477470533.167:    -78  67   9  906
1477470533.171:    -90  67   9  906
1477470533.172:   -105  67   9  906
1477470533.173:   -113  67   9  906
1477470533.174:   -109  67   9  906
1477470533.189:    -96  67   9  906
1477470533.190:    -82  67   9  906
1477470533.190:    -73  67   9  906
1477470533.190:    -71  67   9  906
1477470533.190:    -75  67   9  906
1477470533.191:    -90  67   9  906
1477470533.191:   -103  67   9  906
1477470533.191:   -100  67   9  906
1477470533.195:    -80  67   9  906
1477470533.195:    -63  67   9  906
1477470533.199:    -63  67   9  906
1477470533.199:    -74  67   9  906
1477470533.221:    -75  67   9  906
1477470533.221:    -64  67   9  906
1477470533.221:    -65  67   9  906
1477470533.221:    -83  67   9  906
1477470533.222:    -81  67   9  906
1477470533.222:    -15  67   9  906
1477470533.222:     96  67   9  906
1477470533.222:    185  67   9  906
1477470533.222:    223  67   9  906
1477470533.223:    272  67   9  906
1477470533.223:    421  67   9  906
1477470533.223:    678  67   9  906
1477470533.226:    957  67   9  906
1477470533.227:   1160  67   9  906
1477470533.228:   1258  67   9  906
1477470533.230:   1256  67   9  906
1477470533.233:   1130  67   9  906
1477470533.234:    855  67   9  906
1477470533.235:    481  67   9  906
1477470533.240:    123  67   9  906
1477470533.240:   -153  67   9  906
1477470533.242:   -393  67   9  906
1477470533.244:   -666  67   9  906
1477470533.250:   -944  67   9  906
1477470533.263:  -1117  67   9  906
1477470533.263:  -1139  67   9  906
1477470533.263:  -1112  67   9  906
1477470533.264:  -1186  67   9  906
1477470533.264:  -1407  67   9  906
1477470533.265:  -1710  67   9  906
1477470533.265:  -2023  67   9  906
1477470533.265:  -2343  67   9  906
1477470533.265:  -2666  67   9  906
1477470533.267:  -2918  67   9  906
1477470533.268:  -2998  67   9  906
1477470533.269:  -2878  67   9  906
1477470533.270:  -2623  67   9  906
1477470533.272:  -2304  67   9  906
1477470533.283:  -1935  67   9  906
1477470533.284:  -1501  67   9  906
1477470533.284:  -1035  67   9  906
1477470533.284:   -618  67   9  903
1477470533.285:   -314  67   9  903
1477470533.285:   -128  67   9  903
1477470533.286:    -28  67   9  903
1477470533.289:      5  67   9  903
1477470533.290:    -10  67   9  903
1477470533.295:    -31  67   9  903
1477470533.307:      3  67   9  903
1477470533.308:    121  67   9  903
1477470533.308:    298  67   9  903
1477470533.308:    468  67   9  903
1477470533.308:    583  67   9  903
1477470533.308:    641  67   9  903
1477470533.308:    672  67   9  903
1477470533.308:    694  67   9  903
1477470533.309:    704  67   9  903
1477470533.314:    692  67   9  903
1477470533.314:    664  67   9  903
1477470533.316:    643  67   9  903
1477470533.317:    652  67   9  903
1477470533.321:    686  67   9  903
1477470533.322:    721  67   9  903
1477470533.323:    737  67   9  903
1477470533.339:    736  67   9  903
1477470533.339:    726  67   9  903
1477470533.340:    714  67   9  903
1477470533.340:    701  67   9  903
1477470533.341:    686  67   9  903
1477470533.341:    680  67   9  903
1477470533.342:    693  67   9  903
1477470533.342:    724  67   9  903
1477470533.343:    762  67   9  903
1477470533.344:    795  67   9  903
1477470533.344:    816  67   9  903
1477470533.347:    825  67   9  903
1477470533.350:    824  67   9  903
1477470533.351:    818  67   9  903
1477470533.355:    815  67   9  903
1477470533.355:    818  67   9  903
1477470533.366:    828  67   9  903
1477470533.366:    837  67   9  903
1477470533.366:    842  67   9  903
1477470533.366:    847  67   9  903
1477470533.366:    861  67   9  903
1477470533.369:    887  67   9  903
1477470533.369:    918  67   9  903
1477470533.371:    942  67   9  903
1477470533.373:    952  67   9  903
1477470533.374:    958  67   9  903
1477470533.377:    974  67   9  903
1477470533.383:   1005  67   9  903
1477470533.383:   1039  67   9  903
1477470533.384:   1060  67   9  903
1477470533.385:   1067  67   9  903
1477470533.387:   1077  67   9  903
1477470533.388:   1107  67   9  903
1477470533.390:   1151  67   9  903
1477470533.407:   1191  67   9  903
1477470533.408:   1219  67   9  903
1477470533.410:   1248  67   9  903
1477470533.410:   1291  67   9  903
1477470533.411:   1347  67   9  903
1477470533.413:   1393  67   9  903
1477470533.413:   1424  67   9  903
1477470533.414:   1452  67   9  903
1477470533.415:   1496  67   9  903
1477470533.416:   1558  67   9  903
1477470533.432:   1619  67   9  903
1477470533.432:   1668  67   9  903
1477470533.432:   1713  67   9  903
1477470533.433:   1775  67   9  903
1477470533.433:   1856  67   9  903
1477470533.433:   1942  67   9  903
1477470533.434:   2014  67   9  903
1477470533.434:   2076  67   9  903
1477470533.434:   2140  67   9  903
1477470533.435:   2215  67   9  903
1477470533.435:   2294  67   9  903
1477470533.436:   2367  67   9  903
1477470533.437:   2433  67   9  903
1477470533.439:   2501  67   9  903
1477470533.440:   2579  67   9  903
1477470533.441:   2661  67   9  903
1477470533.454:   2739  67   9  903
1477470533.454:   2807  67   9  903
1477470533.454:   2867  67   9  903
1477470533.454:   2925  67   9  903
1477470533.454:   2982  67   9  903
1477470533.454:   3031  67   9  903
1477470533.455:   3065  67   9  903
1477470533.459:   3085  67   9  903
1477470533.459:   3097  67   9  903
1477470533.461:   3111  67   9  903
1477470533.464:   3127  67   9  903
1477470533.464:   3137  67   9  903
1477470533.475:   3134  67   9  903
1477470533.475:   3119  67   9  903
1477470533.475:   3100  67   9  903
1477470533.475:   3082  67   9  903
1477470533.478:   3060  67   9  903
1477470533.478:   3028  67   9  903
1477470533.482:   2984  67   9  903
1477470533.482:   2939  67   9  903
1477470533.483:   2896  67   9  903
1477470533.484:   2847  67   9  903
1477470533.487:   2779  67   9  903
1477470533.493:   2689  67   9  903
1477470533.494:   2588  67   9  903
1477470533.495:   2485  67   9  903
1477470533.495:   2379  67   9  903
1477470533.496:   2260  67   9  903
1477470533.498:   2124  67   9  903
1477470533.500:   1980  67   9  903
1477470533.505:   1842  67   9  903
1477470533.505:   1712  67   9  903
1477470533.507:   1584  67   9  903
1477470533.508:   1450  67   9  903
1477470533.524:   1306  67   9  903
1477470533.525:   1157  67   9  903
1477470533.525:   1008  67   9  903
1477470533.525:    862  67   9  903
1477470533.525:    716  67   9  903
1477470533.525:    569  67   9  903
1477470533.525:    422  67   9  903
1477470533.526:    278  67   9  903
1477470533.527:    138  67   9  903
1477470533.528:      3  67   9  903
1477470533.532:   -130  67   9  903
1477470533.532:   -257  67   9  903
1477470533.534:   -369  67   9  903
1477470533.535:   -463  67   9  903
1477470533.537:   -547  67   9  903
1477470533.539:   -637  67   9  903
1477470533.542:   -739  67   9  903
1477470533.546:   -845  67   9  903
1477470533.558:   -937  67   9  903
1477470533.573:  -1009  67   9  903
1477470533.578:  -1071  67   9  903
1477470533.578:  -1132  67   9  903
1477470533.578:  -1191  67   9  903
1477470533.578:  -1240  67   9  903
1477470533.579:  -1271  67   9  903
1477470533.579:  -1286  67   9  903
1477470533.579:  -1292  67   9  903
1477470533.579:  -1296  67   9  903
1477470533.579:  -1302  67   9  903
1477470533.579:  -1313  67   9  903
1477470533.580:  -1325  67   9  903
1477470533.581:  -1334  67   9  903
1477470533.581:  -1337  67   9  903
1477470533.581:  -1340  67   9  903
1477470533.581:  -1348  67   9  903
1477470533.581:  -1355  67   9  903
1477470533.582:  -1351  67   9  903
1477470533.583:  -1331  67   9  903
1477470533.587:  -1304  67   9  903
1477470533.646:  -1282  67   9  903
1477470533.646:  -1262  67   9  903
1477470533.646:  -1230  67   9  903
1477470533.647:  -1186  67   9  903
1477470533.647:  -1142  67   9  903
1477470533.647:  -1114  67   9  903
1477470533.647:  -1099  67   9  903
1477470533.647:  -1083  67   9  903
1477470533.647:  -1054  67   9  903
1477470533.647:  -1019  67   9  903
1477470533.648:   -990  67   9  903
1477470533.648:   -971  67   9  903
1477470533.648:   -950  67   9  903
1477470533.648:   -918  67   9  903
1477470533.648:   -879  67   9  903
1477470533.648:   -847  67   9  903
1477470533.648:   -825  67   9  903
1477470533.649:   -809  67   9  903
1477470533.649:   -786  67   9  903
1477470533.649:   -756  67   9  903
1477470533.649:   -731  67   9  903
1477470533.649:   -718  67   9  903
1477470533.650:   -714  67   9  903
1477470533.650:   -704  67   9  903
1477470533.650:   -682  67   9  903
1477470533.650:   -654  67   9  903
1477470533.650:   -634  67   9  903
1477470533.651:   -625  67   9  903
1477470533.651:   -621  67   9  903
1477470533.651:   -612  67   9  903
1477470533.651:   -595  67   9  903
1477470533.667:   -574  67   9  903
1477470533.667:   -553  67   9  903
1477470533.668:   -531  67   9  903
1477470533.668:   -509  67   9  903
1477470533.668:   -489  67   9  903
1477470533.668:   -470  67   9  903
1477470533.668:   -448  67   9  903
1477470533.668:   -424  67   9  903
1477470533.668:   -403  67   9  903
1477470533.669:   -394  67   9  903
1477470533.669:   -402  67   9  903
1477470533.669:   -416  67   9  903
1477470533.670:   -425  67   9  903
1477470533.675:   -423  67   9  903
1477470533.675:   -417  67   9  903
1477470533.679:   -418  67   9  903
1477470533.679:   -425  67   9  903
1477470533.680:   -429  67   9  903
1477470533.681:   -421  67   9  903
1477470533.688:   -403  67   9  903
1477470533.698:   -382  67   9  903
1477470533.699:   -362  67   9  903
1477470533.699:   -348  67   9  903
1477470533.699:   -341  67   9  903
1477470533.699:   -341  67   9  903
1477470533.699:   -347  67   9  903
1477470533.699:   -354  67   9  903
1477470533.700:   -357  67   9  903
1477470533.702:   -358  67   9  903
1477470533.706:   -359  67   9  903
1477470533.707:   -363  67   9  903
1477470533.708:   -367  67   9  903
1477470533.710:   -367  67   9  903
1477470533.714:   -361  67   9  903
1477470533.724:   -349  67   9  903
1477470533.724:   -337  67   9  903
1477470533.724:   -329  67   9  903
1477470533.725:   -331  67   9  903
1477470533.725:   -341  67   9  903
1477470533.726:   -350  67   9  903
1477470533.727:   -354  67   9  903
1477470533.728:   -351  67   9  903
1477470533.730:   -350  67   9  903
1477470533.734:   -359  67   9  903
1477470533.734:   -376  67   9  903
1477470533.736:   -394  67   9  903
1477470533.755:   -403  67   9  903
1477470533.755:   -400  67   9  903
1477470533.756:   -387  67   9  903
1477470533.756:   -374  67   9  903
1477470533.757:   -365  67   9  903
1477470533.758:   -358  67   9  903
1477470533.759:   -349  67   9  903
1477470533.760:   -338  67   9  903
1477470533.761:   -331  67   9  903
1477470533.761:   -340  67   9  903
1477470533.762:   -362  67   9  903
1477470533.763:   -382  67   9  903
1477470533.764:   -391  67   9  903
1477470533.767:   -392  67   9  903
1477470533.767:   -397  67   9  903
1477470533.770:   -412  67   9  903
1477470533.786:   -421  67   9  903
1477470533.787:   -411  67   9  903
1477470533.787:   -385  67   9  903
1477470533.788:   -357  67   9  903
1477470533.788:   -336  67   9  903
1477470533.788:   -321  67   9  903
1477470533.788:   -305  67   9  903
1477470533.789:   -292  67   9  903
1477470533.789:   -288  67   9  903
1477470533.789:   -290  67   9  903
1477470533.790:   -288  67   9  903
1477470533.791:   -280  67   9  903
1477470533.794:   -275  67   9  903
1477470533.797:   -282  67   9  903
1477470533.804:   -297  67   9  903
1477470533.804:   -303  67   9  903
1477470533.804:   -291  67   9  903
1477470533.804:   -268  67   9  903
1477470533.805:   -248  67   9  903
1477470533.807:   -238  67   9  903
1477470533.811:   -231  67   9  903
1477470533.812:   -221  67   9  903
1477470533.813:   -209  67   9  903
1477470533.814:   -200  67   9  903
1477470533.816:   -195  67   9  903
1477470533.818:   -193  67   9  903
1477470533.824:   -193  67   9  903
1477470533.825:   -197  67   9  903
1477470533.825:   -204  67   9  903
1477470533.827:   -208  67   9  903
1477470533.829:   -202  67   9  903
1477470533.830:   -187  67   9  903
1477470533.846:   -167  67   9  903
1477470533.846:   -147  67   9  903
1477470533.846:   -127  67   9  903
1477470533.847:   -109  67   9  903
1477470533.847:   -100  67   9  903
1477470533.847:   -105  67   9  903
1477470533.847:   -122  67   9  903
1477470533.847:   -137  67   9  903
1477470533.849:   -143  67   9  903
1477470533.853:   -144  67   9  903
1477470533.853:   -152  67   9  903
1477470533.855:   -165  67   9  903
1477470533.867:   -171  67   9  903
1477470533.867:   -155  67   9  903
1477470533.867:   -124  67   9  903
1477470533.867:    -96  67   9  903
1477470533.867:    -82  67   9  903
1477470533.868:    -76  67   9  903
1477470533.868:    -66  67   9  903
1477470533.869:    -50  67   9  903
1477470533.871:    -42  67   9  903
1477470533.873:    -48  67   9  903
1477470533.876:    -62  67   9  903
1477470533.877:    -68  67   9  903
1477470533.881:    -60  67   9  903
1477470533.881:    -48  67   9  903
1477470533.885:    -42  67   9  903
1477470533.886:    -43  67   9  903
1477470533.887:    -38  67   9  903
1477470533.890:    -25  67   9  903
1477470533.891:    -12  67   9  903
1477470533.894:     -6  67   9  903
1477470533.911:     -8  67   9  903
1477470533.911:    -13  67   9  903
1477470533.912:    -17  67   9  903
1477470533.912:    -21  67   9  903
1477470533.912:    -21  67   9  903
1477470533.912:    -13  67   9  903
1477470533.913:      3  67   9  903
1477470533.913:     17  67   9  903
1477470533.914:     20  67   9  903
1477470533.914:     17  67   9  903
1477470533.915:     22  67   9  903
1477470533.915:     36  67   9  903
1477470533.918:     44  67   9  903
1477470533.922:     35  67   9  903
1477470533.922:     21  67   9  903
1477470533.926:     21  67   9  903
1477470533.926:     36  67   9  903
1477470533.930:     41  67   9  903
1477470533.960:     19  67   9  903
1477470533.960:    -16  67   9  903
1477470533.960:    -33  67   9  903
1477470533.961:    -21  67   9  903
1477470533.961:     -1  67   9  903
1477470533.961:     -4  67   9  903
1477470533.961:    -26  67   9  903
1477470533.961:    -42  67   9  903
1477470533.961:    -32  67   9  903
1477470533.961:     -8  67   9  903
1477470533.962:      6  67   9  903
1477470533.962:      6  67   9  903
1477470533.962:      5  67   9  903
1477470533.962:     16  67   9  903
1477470533.962:     30  67   9  903
1477470533.962:     35  67   9  903
1477470533.963:     26  67   9  903
1477470533.964:     20  67   9  903
1477470533.970:     28  67   9  903
1477470533.970:     51  67   9  903
1477470533.971:     75  67   9  903
1477470533.971:     93  67   9  903
1477470533.975:    108  67   9  903
1477470533.976:    128  67   9  903
1477470533.991:    155  67   9  903
1477470533.991:    184  67   9  903
1477470533.991:    205  67   9  903
1477470533.992:    216  67   9  903
1477470533.992:    222  67   9  903
1477470533.992:    224  67   9  903
1477470533.992:    218  67   9  903
1477470533.992:    197  67   9  903
1477470533.995:    160  67   9  903
1477470533.995:    130  67   9  903
1477470533.996:    131  67   9  903
1477470533.999:    170  67   9  903
1477470534.003:    223  67   9  903
1477470534.004:    259  67   9  903
1477470534.005:    271  67   9  903
1477470534.007:    283  67   9  903
1477470534.040:    319  67   9  903
1477470534.044:    367  67   9  903
1477470534.044:    389  67   9  903
1477470534.045:    359  67   9  903
1477470534.045:    297  67   9  903
1477470534.045:    246  67   9  903
1477470534.045:    228  67   9  903
1477470534.045:    225  67   9  903
1477470534.047:    209  67   9  903
1477470534.050:    184  67   9  903
1477470534.065:    182  67   9  903
1477470534.065:    222  67   9  903
1477470534.065:    282  67   9  903
1477470534.065:    322  67   9  903
1477470534.065:    329  67   9  903
1477470534.065:    324  67   9  903
1477470534.066:    330  67   9  903
1477470534.066:    341  67   9  903
1477470534.066:    331  67   9  903
1477470534.066:    295  67   9  903
1477470534.066:    254  67   9  903
1477470534.067:    233  67   9  903
1477470534.067:    229  67   9  903
1477470534.067:    221  67   9  903
1477470534.067:    202  67   9  903
1477470534.067:    187  67   9  903
1477470534.067:    189  67   9  903
1477470534.068:    196  67   9  903
1477470534.068:    182  67   9  903
1477470534.068:    139  67   9  903
1477470534.068:     86  67   9  903
1477470534.072:     45  67   9  903
1477470534.072:     17  67   9  903
1477470534.076:    -13  67   9  903
1477470534.076:    -50  67   9  903
1477470534.078:    -82  67   9  903
1477470534.089:    -97  67   9  903
1477470534.089:    -99  67   9  903
1477470534.089:   -104  67   9  903
1477470534.089:   -118  67   9  903
1477470534.092:   -127  67   9  903
1477470534.092:   -123  67   9  903
1477470534.094:   -110  67   9  903
1477470534.104:   -104  67   9  903
1477470534.104:   -113  67   9  903
1477470534.104:   -127  67   9  903
1477470534.104:   -131  67   9  903
1477470534.105:   -128  67   9  903
1477470534.105:   -134  67   9  903
1477470534.105:   -161  67   9  903
1477470534.107:   -197  67   9  903
1477470534.108:   -220  67   9  903
1477470534.114:   -219  67   9  903
1477470534.114:   -204  67   9  903
1477470534.117:   -197  67   9  903
1477470534.117:   -201  67   9  903
1477470534.130:   -198  67   9  903
1477470534.130:   -180  67   9  903
1477470534.130:   -158  67   9  903
1477470534.130:   -145  67   9  903
1477470534.131:   -142  67   9  903
1477470534.131:   -139  67   9  903
1477470534.132:   -144  67   9  903
1477470534.133:   -178  67   9  903
1477470534.136:   -233  67   9  903
1477470534.136:   -252  67   9  903
1477470534.147:   -185  67   9  903
1477470534.147:    -60  67   9  903
1477470534.147:     40  67   9  903
1477470534.147:     85  67   9  903
1477470534.148:    147  67   9  903
1477470534.150:    318  67   9  903
1477470534.150:    596  67   9  903
1477470534.155:    880  67   9  903
1477470534.164:   1072  67   9  903
1477470534.164:   1157  67   9  903
1477470534.164:   1143  67   9  903
1477470534.164:    991  67   9  903
1477470534.164:    663  67   9  903
1477470534.164:    223  67   9  903
1477470534.166:   -183  67   9  903
1477470534.169:   -475  67   9  903
1477470534.174:   -717  67   9  903
1477470534.175:  -1007  67   9  903
1477470534.176:  -1319  67   9  903
1477470534.176:  -1514  67   9  903
1477470534.177:  -1526  67   9  903
1477470534.180:  -1470  66   8  895
1477470534.183:  -1525  66   8  895
1477470534.183:  -1756  66   8  895
1477470534.184:  -2087  66   8  895
1477470534.187:  -2426  66   8  895
1477470534.192:  -2759  66   8  895
1477470534.193:  -3085  66   8  895
1477470534.206:  -3333  66   8  895
1477470534.206:  -3398  66   8  895
1477470534.206:  -3255  66   8  895
1477470534.206:  -2971  66   8  895
1477470534.206:  -2626  66   8  895
1477470534.206:  -2230  66   8  895
1477470534.206:  -1768  66   8  895
1477470534.207:  -1272  66   8  895
1477470534.208:   -827  66   8  895
1477470534.211:   -502  66   8  895
1477470534.213:   -306  66   8  895
1477470534.215:   -210  66   8  895
1477470534.219:   -187  66   8  895
1477470534.219:   -204  66   8  895
1477470534.226:   -202  66   8  895
1477470534.226:   -128  66   8  895
1477470534.227:     23  66   8  895
1477470534.227:    203  66   8  895
1477470534.228:    354  66   8  895
1477470534.232:    456  66   8  895
1477470534.233:    524  66   8  895
1477470534.234:    573  66   8  895
1477470534.237:    590  66   8  895
1477470534.238:    566  66   8  895
1477470534.241:    518  66   8  895
1477470534.242:    478  66   8  895
1477470534.247:    469  66   8  895
1477470534.247:    492  66   8  895
1477470534.248:    531  66   8  895
1477470534.250:    574  66   8  895
1477470534.253:    614  66   8  895
1477470534.255:    645  66   8  895
1477470534.256:    659  66   8  895
1477470534.258:    656  66   8  895
1477470534.272:    642  66   8  895
1477470534.272:    627  66   8  895
1477470534.272:    620  66   8  895
1477470534.273:    624  66   8  895
1477470534.273:    636  66   8  895
1477470534.273:    653  66   8  895
1477470534.273:    673  66   8  895
1477470534.273:    689  66   8  895
1477470534.278:    693  66   8  895
1477470534.278:    689  66   8  895
1477470534.279:    686  66   8  895
1477470534.280:    694  66   8  895
1477470534.290:    706  66   8  895
1477470534.290:    706  66   8  895
1477470534.296:    687  66   8  895
1477470534.296:    665  66   8  895
1477470534.297:    664  66   8  895
1477470534.297:    690  66   8  895
1477470534.297:    723  66   8  895
1477470534.298:    736  66   8  895
1477470534.299:    728  66   8  895
1477470534.301:    727  66   8  895
1477470534.306:    757  66   8  895
1477470534.306:    812  66   8  895
1477470534.308:    863  66   8  895
1477470534.309:    895  66   8  895
1477470534.311:    915  66   8  895
1477470534.316:    943  66   8  895
1477470534.316:    981  66   8  895
1477470534.320:   1012  66   8  895
1477470534.330:   1024  66   8  895
1477470534.330:   1026  66   8  895
1477470534.331:   1041  66   8  895
1477470534.331:   1078  66   8  895
1477470534.331:   1126  66   8  895
1477470534.331:   1169  66   8  895
1477470534.331:   1207  66   8  895
1477470534.332:   1252  66   8  895
1477470534.344:   1314  66   8  895
1477470534.345:   1387  66   8  895
1477470534.345:   1459  66   8  895
1477470534.346:   1522  66   8  895
1477470534.346:   1577  66   8  895
1477470534.347:   1631  66   8  895
1477470534.347:   1688  66   8  895
1477470534.348:   1750  66   8  895
1477470534.351:   1818  66   8  895
1477470534.355:   1896  66   8  895
1477470534.367:   1980  66   8  895
1477470534.368:   2063  66   8  895
1477470534.368:   2135  66   8  895
1477470534.368:   2202  66   8  895
1477470534.368:   2274  66   8  895
1477470534.369:   2356  66   8  895
1477470534.369:   2443  66   8  895
1477470534.369:   2523  66   8  895
1477470534.371:   2592  66   8  895
1477470534.372:   2654  66   8  895
1477470534.373:   2712  66   8  895
1477470534.376:   2761  66   8  895
1477470534.378:   2800  66   8  895
1477470534.382:   2837  66   8  895
1477470534.389:   2883  66   8  895
1477470534.389:   2936  66   8  895
1477470534.389:   2983  66   8  895
1477470534.389:   3015  66   8  895
1477470534.390:   3038  66   8  895
1477470534.392:   3066  66   8  895
1477470534.396:   3101  66   8  895
1477470534.397:   3130  66   8  895
1477470534.398:   3138  66   8  895
1477470534.400:   3127  66   8  895
1477470534.402:   3110  66   8  895
1477470534.404:   3092  66   8  895
1477470534.405:   3068  66   8  895
1477470534.410:   3026  66   8  895
1477470534.410:   2969  66   8  895
1477470534.412:   2907  66   8  895
1477470534.428:   2848  66   8  895
1477470534.429:   2786  66   8  895
1477470534.429:   2709  66   8  895
1477470534.429:   2617  66   8  895
1477470534.430:   2519  66   8  895
1477470534.430:   2420  66   8  895
1477470534.430:   2316  66   8  895
1477470534.430:   2198  66   8  895
1477470534.431:   2066  66   8  895
1477470534.431:   1926  66   8  895
1477470534.433:   1786  66   8  895
1477470534.437:   1642  66   8  895
1477470534.451:   1489  66   8  895
1477470534.451:   1333  66   8  895
1477470534.451:   1181  66   8  895
1477470534.451:   1031  66   8  895
1477470534.451:    876  66   8  895
1477470534.452:    712  66   8  895
1477470534.452:    548  66   8  895
1477470534.452:    392  66   8  895
1477470534.453:    244  66   8  895
1477470534.455:     94  66   8  895
1477470534.456:    -57  66   8  895
1477470534.462:   -196  66   8  895
1477470534.462:   -316  66   8  895
1477470534.466:   -428  66   8  895
1477470534.466:   -551  66   8  895
1477470534.468:   -688  66   8  895
1477470534.469:   -820  66   8  895
1477470534.470:   -924  66   8  895
1477470534.472:  -1002  66   8  895
1477470534.475:  -1074  66   8  895
1477470534.479:  -1154  66   8  895
1477470534.522:  -1237  66   8  895
1477470534.523:  -1302  66   8  895
1477470534.523:  -1342  66   8  895
1477470534.535:  -1364  66   8  895
1477470534.536:  -1387  66   8  895
1477470534.536:  -1418  66   8  895
1477470534.536:  -1449  66   8  895
1477470534.536:  -1469  66   8  895
1477470534.536:  -1476  66   8  895
1477470534.536:  -1478  66   8  895
1477470534.537:  -1480  66   8  895
1477470534.538:  -1484  66   8  895
1477470534.539:  -1485  66   8  895
1477470534.539:  -1481  66   8  895
1477470534.540:  -1473  66   8  895
1477470534.540:  -1458  66   8  895
1477470534.540:  -1436  66   8  895
1477470534.540:  -1408  66   8  895
1477470534.540:  -1384  66   8  895
1477470534.540:  -1362  66   8  895
1477470534.541:  -1339  66   8  895
1477470534.541:  -1307  66   8  895
1477470534.541:  -1271  66   8  895
1477470534.541:  -1243  66   8  895
1477470534.541:  -1227  66   8  895
1477470534.542:  -1209  66   8  895
1477470534.542:  -1179  66   8  895
1477470534.543:  -1138  66   8  895
1477470534.543:  -1103  66   8  895
1477470534.543:  -1079  66   8  895
1477470534.543:  -1053  66   8  895
1477470534.544:  -1011  66   8  895
1477470534.547:   -956  66   8  895
1477470534.548:   -907  66   8  895
1477470534.548:   -874  66   8  895
1477470534.548:   -848  66   8  895
1477470534.552:   -816  66   8  895
1477470534.552:   -778  66   8  895
1477470534.553:   -754  66   8  895
1477470534.561:   -751  66   8  895
1477470534.562:   -759  66   8  895
1477470534.568:   -757  66   8  895
1477470534.568:   -737  66   8  895
1477470534.568:   -712  66   8  895
1477470534.568:   -694  66   8  895
1477470534.568:   -680  66   8  895
1477470534.570:   -657  66   8  895
1477470534.570:   -621  66   8  895
1477470534.576:   -576  66   8  895
1477470534.578:   -537  66   8  895
1477470534.578:   -510  66   8  895
1477470534.579:   -488  66   8  895
1477470534.580:   -467  66   8  895
1477470534.582:   -445  66   8  895
1477470534.584:   -430  66   8  895
1477470534.594:   -421  66   8  895
1477470534.595:   -410  66   8  895
1477470534.595:   -390  66   8  895
1477470534.596:   -363  66   8  895
1477470534.597:   -339  66   8  895
1477470534.597:   -325  66   8  895
1477470534.598:   -319  66   8  895
1477470534.599:   -309  66   8  895
1477470534.600:   -287  66   8  895
1477470534.603:   -261  66   8  895
1477470534.607:   -246  66   8  895
1477470534.608:   -249  66   8  895
1477470534.617:   -260  66   8  895
1477470534.617:   -264  66   8  895
1477470534.617:   -255  66   8  895
1477470534.617:   -245  66   8  895
1477470534.617:   -241  66   8  895
1477470534.620:   -241  66   8  895
1477470534.622:   -235  66   8  895
1477470534.625:   -220  66   8  895
1477470534.638:   -204  66   8  895
1477470534.638:   -197  66   8  895
1477470534.638:   -198  66   8  895
1477470534.638:   -192  66   8  895
1477470534.638:   -170  66   8  895
1477470534.638:   -136  66   8  895
1477470534.639:   -107  66   8  895
1477470534.639:    -98  66   8  895
1477470534.644:   -107  66   8  895
1477470534.648:   -119  66   8  895
1477470534.650:   -125  66   8  895
1477470534.651:   -128  66   8  895
1477470534.651:   -140  66   8  895
1477470534.653:   -164  66   8  895
1477470534.658:   -190  66   8  895
1477470534.659:   -205  66   8  895
1477470534.659:   -208  66   8  895
1477470534.662:   -206  66   8  895
1477470534.662:   -203  66   8  895
1477470534.663:   -197  66   8  895
1477470534.665:   -180  66   8  895
1477470534.667:   -155  66   8  895
1477470534.671:   -134  66   8  895
1477470534.671:   -124  66   8  895
1477470534.682:   -118  66   8  895
1477470534.683:   -106  66   8  895
1477470534.684:    -87  66   8  895
1477470534.685:    -70  66   8  895
1477470534.685:    -66  66   8  895
1477470534.686:    -73  66   8  895
1477470534.686:    -79  66   8  895
1477470534.690:    -71  66   8  895
1477470534.690:    -57  66   8  895
1477470534.690:    -50  66   8  895
1477470534.692:    -59  66   8  895
1477470534.693:    -76  66   8  895
1477470534.697:    -86  66   8  895
1477470534.698:    -84  66   8  895
1477470534.709:    -74  66   8  895
1477470534.710:    -67  66   8  895
1477470534.710:    -66  66   8  895
1477470534.710:    -59  66   8  895
1477470534.711:    -43  66   8  895
1477470534.711:    -19  66   8  895
1477470534.712:      0  66   8  895
1477470534.717:     15  66   8  895
1477470534.717:     30  66   8  895
1477470534.719:     51  66   8  895
1477470534.720:     71  66   8  895
1477470534.721:     81  66   8  895
1477470534.734:     83  66   8  895
1477470534.735:     89  66   8  895
1477470534.735:    105  66   8  895
1477470534.736:    121  66   8  895
1477470534.738:    123  66   8  895
1477470534.739:    102  66   8  895
1477470534.739:     72  66   8  895
1477470534.740:     48  66   8  895
1477470534.756:     42  66   8  895
1477470534.756:     50  66   8  895
1477470534.756:     60  66   8  895
1477470534.757:     65  66   8  895
1477470534.757:     76  66   8  895
1477470534.757:    109  66   8  895
1477470534.757:    156  66   8  895
1477470534.758:    187  66   8  895
1477470534.758:    196  66   8  895
1477470534.759:    207  66   8  895
1477470534.759:    239  66   8  895
1477470534.765:    260  66   8  895
1477470534.766:    226  66   8  895
1477470534.766:    159  66   8  895
1477470534.768:    157  66   8  895
1477470534.769:    253  66   8  895
1477470534.771:    321  66   8  895
1477470534.773:    229  66   8  895
1477470534.786:     73  66   8  895
1477470534.786:    130  66   8  895
1477470534.786:    513  66   8  895
1477470534.787:    952  66   8  895
1477470534.787:   1047  66   8  895
1477470534.787:    758  66   8  895
1477470534.787:    475  66   8  895
1477470534.789:    518  66   8  895
1477470534.790:    706  66   8  895
1477470534.792:    624  66   8  895
1477470534.795:    259  66   8  895
1477470534.799:     93  66   8  895
1477470534.799:    471  66   8  895
1477470534.800:   1066  66   8  895
1477470534.802:   1234  66   8  895
1477470534.803:    835  66   8  895
1477470534.806:    440  66   8  895
1477470534.808:    558  66   8  895
1477470534.822:    931  66   8  895
1477470534.823:    877  66   8  895
1477470534.823:    254  66   8  895
1477470534.823:   -269  66   8  895
1477470534.823:    -52  66   8  895
1477470534.824:    665  66   8  895
1477470534.824:   1037  66   8  895
1477470534.824:    690  66   8  895
1477470534.824:    172  66   8  895
1477470534.853:    168  66   8  895
1477470534.860:    579  66   8  895
1477470534.860:    683  66   8  895
1477470534.860:    158  66   8  895
1477470534.860:   -418  66   8  895
1477470534.861:   -301  66   8  895
1477470534.861:    419  66   8  895
1477470534.861:    909  66   8  895
1477470534.861:    649  66   8  895
1477470534.861:     76  66   8  895
1477470534.862:    -44  66   8  895
1477470534.862:    369  66   8  895
1477470534.863:    639  66   8  895
1477470534.863:    281  66   8  895
1477470534.863:   -310  66   8  895
1477470534.864:   -368  66   8  895
1477470534.864:    207  66   8  895
1477470534.864:    708  66   8  895
1477470534.865:    533  66   8  895
1477470534.865:    -33  66   8  895
1477470534.867:   -235  66   8  895
1477470534.868:    150  66   8  895
1477470534.875:    540  66   8  895
1477470534.890:    347  66   8  895
1477470534.891:   -217  66   8  895
1477470534.891:   -410  66   8  895
1477470534.891:     45  66   8  895
1477470534.892:    595  66   8  895
1477470534.892:    571  66   8  895
1477470534.892:     52  66   8  895
1477470534.892:   -269  66   8  895
1477470534.893:    -11  66   8  895
1477470534.893:    424  66   8  895
1477470534.893:    408  66   8  895
1477470534.896:    -65  66   8  895
1477470534.896:   -365  66   8  895
1477470534.898:    -78  66   8  895
1477470534.899:    449  66   8  895
1477470534.904:    561  66   8  895
1477470534.911:    142  66   8  895
1477470534.912:   -244  66   8  895
1477470534.912:   -119  66   8  895
1477470534.912:    298  66   8  895
1477470534.914:    409  66   8  895
1477470534.914:     33  66   8  895
1477470534.916:   -340  66   8  895
1477470534.918:   -207  66   8  895
1477470534.920:    285  66   8  895
1477470534.922:    534  66   8  895
1477470534.923:    259  66   8  895
1477470534.925:   -138  66   8  895
1477470534.927:   -103  66   8  895
1477470534.932:    324  66   8  895
1477470534.932:    570  66   8  895
1477470534.933:    267  66   8  895
1477470534.934:   -247  66   8  895
1477470534.941:   -340  66   8  895
1477470534.956:    118  66   8  895
1477470534.956:    593  66   8  895
1477470534.956:    543  66   8  895
1477470534.957:    102  66   8  895
1477470534.957:   -103  66   8  895
1477470534.957:    253  66   8  895
1477470534.957:    753  66   8  895
1477470534.957:    720  66   8  895
1477470534.958:     67  66   8  895
1477470534.958:   -557  66   8  895
1477470534.961:   -514  66   8  895
1477470534.961:     87  66   8  895
1477470534.963:    534  66   8  895
1477470534.965:    388  66   8  895
1477470534.973:     -1  66   8  895
1477470534.973:     30  66   8  895
1477470534.973:    586  66   8  895
1477470534.974:   1052  66   8  895
1477470534.974:    843  66   8  895
1477470534.976:    130  66   8  895
1477470534.979:   -378  66   8  895
1477470534.981:   -271  66   8  895
1477470534.982:    108  66   8  895
1477470534.986:    165  66   8  895
1477470534.986:   -170  66   8  895
1477470534.989:   -388  66   8  895
1477470534.990:    -77  66   8  895
1477470534.991:    544  66   8  895
1477470534.995:    853  66   8  895
1477470534.996:    509  66   8  895
1477470535.000:   -227  66   8  895
1477470535.000:   -854  66   8  895
1477470535.002:  -1122  66   8  895
1477470535.004:  -1143  66   8  895
1477470535.018:  -1106  66   8  895
1477470535.019:  -1024  66   8  895
1477470535.019:   -806  66   8  895
1477470535.020:   -441  66   8  895
1477470535.046:    -64  66   8  895
1477470535.046:    179  66   8  895
1477470535.047:    270  66   8  895
1477470535.047:    289  66   8  895
1477470535.047:    279  66   8  895
1477470535.047:    202  66   8  895
1477470535.047:     29  66   8  895
1477470535.047:   -157  66   8  895
1477470535.049:   -194  66   8  895
1477470535.051:     -2  66   8  895
1477470535.053:    308  66   8  895
1477470535.054:    515  66   8  895
1477470535.059:    529  66   8  895
1477470535.059:    471  66   8  895
1477470535.060:    500  66   8  895
1477470535.060:    597  66   8  895
