timestamp: ADC HeartRate4sAverage HeartRate30sAverage HRV8sAverage
1477477486.067:    356  80  10  743
1477477486.073:    319  80  10  743
1477477486.073:    316  80  10  743
1477477486.073:    339  80  10  743
1477477486.073:    338  80  10  743
1477477486.073:    295  80  10  743
1477477486.073:    252  80  10  743
1477477486.074:    260  80  10  743
1477477486.074:    306  80  10  743
1477477486.074:    314  80  10  743
1477477486.074:    240  80  10  743
1477477486.074:    134  80  10  743
1477477486.074:     95  80  10  743
1477477486.074:    167  80  10  743
1477477486.075:    284  80  10  743
1477477486.075:    342  80  10  743
1477477486.075:    301  80  10  743
1477477486.075:    222  80  10  743
1477477486.075:    193  80  10  743
1477477486.075:    230  80  10  743
1477477486.075:    278  80  10  743
1477477486.076:    282  80  10  743
1477477486.076:    240  80  10  743
1477477486.076:    184  80  10  743
1477477486.076:    146  80  10  743
1477477486.076:    142  80  10  743
1477477486.076:    170  80  10  743
1477477486.076:    217  80  10  743
1477477486.076:    252  80  10  743
1477477486.077:    245  80  10  743
1477477486.077:    204  80  10  743
1477477486.077:    179  80  10  743
1477477486.077:    199  80  10  743
1477477486.077:    219  80  10  743
1477477486.077:    177  80  10  743
1477477486.077:     77  80  10  743
1477477486.077:      4  80  10  743
1477477486.078:     18  80  10  743
1477477486.078:     74  80  10  743
1477477486.078:     68  80  10  743
1477477486.078:    -25  80  10  743
1477477486.078:   -102  80  10  743
1477477486.078:    -69  80  10  743
1477477486.079:     45  80  10  743
1477477486.079:    124  80  10  743
1477477486.079:    110  80  10  743
1477477486.079:     66  80  10  743
1477477486.079:     85  80  10  743
1477477486.079:    167  80  10  743
1477477486.079:    223  80  10  743
1477477486.080:    186  80  10  743
1477477486.080:     95  80  10  743
1477477486.080:     40  80  10  743
1477477486.080:     56  80  10  743
1477477486.083:     88  80  10  743
1477477486.083:     64  80  10  743
1477477486.083:    -16  80  10  743
1477477486.083:    -77  80  10  743
1477477486.085:    -44  80  10  743
1477477486.088:     75  80  10  743
1477477486.088:    186  80  10  743
1477477486.089:    190  80  10  743
1477477486.091:     83  80  10  743
1477477486.092:    -35  80  10  743
1477477486.094:    -57  80  10  743
1477477486.097:     28  80  10  743
1477477486.101:    126  80  10  743
1477477486.113:    142  80  10  743
1477477486.114:     83  80  10  743
1477477486.115:     36  80  10  743
1477477486.115:     71  80  10  743
1477477486.115:    173  80  10  743
1477477486.116:    278  80  10  743
1477477486.117:    333  80  10  743
1477477486.117:    334  80  10  743
1477477486.118:    303  80  10  743
1477477486.118:    268  80  10  743
1477477486.119:    255  80  10  743
1477477486.122:    276  80  10  743
1477477486.132:    311  80  10  743
1477477486.133:    318  80  10  743
1477477486.133:    281  80  10  743
1477477486.134:    235  80  10  743
1477477486.135:    232  80  10  743
1477477486.135:    275  80  10  743
1477477486.136:    302  80  10  743
1477477486.138:    260  80  10  743
1477477486.142:    162  80  10  743
1477477486.142:     74  80  10  743
1477477486.150:     36  80  10  743
1477477486.150:     21  80  10  743
1477477486.157:    -34  80  10  743
1477477486.158:   -158  80  10  743
1477477486.170:   -325  80  10  743
1477477486.170:   -488  80  10  743
1477477486.171:   -643  80  10  743
1477477486.171:   -845  80  10  743
1477477486.171:  -1156  80  10  743
1477477486.171:  -1581  80  10  743
1477477486.171:  -2058  80  10  743
1477477486.172:  -2495  80  10  743
1477477486.172:  -2833  80  10  743
1477477486.172:  -3068  80  10  743
1477477486.174:  -3204  80  10  743
1477477486.174:  -3211  80  10  743
1477477486.175:  -3027  80  10  743
1477477486.177:  -2598  80  10  743
1477477486.179:  -1922  80  10  743
1477477486.184:  -1066  80  10  743
1477477486.184:   -131  80  10  743
1477477486.192:    764  80  10  743
1477477486.195:   1520  80  10  743
1477477486.196:   2085  80  10  743
1477477486.212:   2466  80  10  743
1477477486.214:   2698  80  10  743
1477477486.216:   2792  80  10  743
1477477486.217:   2720  80  10  743
1477477486.217:   2469  80  10  743
1477477486.219:   2094  80  10  743
1477477486.219:   1708  80  10  743
1477477486.220:   1409  80  10  743
1477477486.222:   1223  80  10  743
1477477486.223:   1113  80  10  743
1477477486.233:   1036  80  10  743
1477477486.233:    970  80  10  743
1477477486.234:    912  80  10  743
1477477486.234:    859  80  10  743
1477477486.234:    802  80  10  743
1477477486.235:    745  80  10  743
1477477486.235:    697  80  10  743
1477477486.235:    654  80  10  743
1477477486.236:    598  80  10  743
1477477486.236:    521  80  10  743
1477477486.236:    445  80  10  743
1477477486.236:    399  80  10  743
1477477486.237:    396  80  10  743
1477477486.239:    419  80  10  743
1477477486.239:    442  80  10  743
1477477486.241:    453  80  10  743
1477477486.251:    456  80  10  743
1477477486.253:    447  80  10  743
1477477486.253:    416  80  10  743
1477477486.254:    357  80  10  743
1477477486.255:    292  80  10  743
1477477486.256:    251  80  10  743
1477477486.257:    245  80  10  743
1477477486.258:    255  80  10  743
1477477486.260:    255  80  10  743
1477477486.261:    241  80  10  743
1477477486.262:    233  80  10  743
1477477486.267:    244  80  10  743
1477477486.294:    266  80  10  743
1477477486.294:    283  80  10  743
1477477486.295:    288  80  10  743
1477477486.295:    291  80  10  743
1477477486.295:    300  80  10  743
1477477486.295:    312  80  10  743
1477477486.296:    314  80  10  743
1477477486.296:    303  80  10  743
1477477486.296:    285  80  10  743
1477477486.297:    271  80  10  743
1477477486.297:    259  80  10  743
1477477486.297:    243  80  10  743
1477477486.298:    216  80  10  743
1477477486.298:    188  80  10  743
1477477486.298:    171  80  10  743
1477477486.299:    170  80  10  743
1477477486.299:    181  80  10  743
1477477486.299:    192  80  10  743
1477477486.301:    191  80  10  743
1477477486.303:    177  80  10  743
1477477486.308:    158  80  10  743
1477477486.308:    143  80  10  743
1477477486.310:    135  80  10  743
1477477486.313:    131  80  10  743
1477477486.327:    121  80  10  743
1477477486.328:     99  80  10  743
1477477486.329:     70  80  10  743
1477477486.329:     48  80  10  743
1477477486.330:     39  80  10  743
1477477486.331:     40  80  10  743
1477477486.331:     39  80  10  743
1477477486.332:     29  80  10  743
1477477486.333:      8  80  10  743
1477477486.333:    -16  80  10  743
1477477486.336:    -40  80  10  743
1477477486.336:    -63  80  10  743
1477477486.341:    -87  80  10  743
1477477486.343:   -111  80  10  743
1477477486.351:   -135  80  10  743
1477477486.351:   -161  80  10  743
1477477486.352:   -189  80  10  743
1477477486.353:   -214  80  10  743
1477477486.354:   -231  80  10  743
1477477486.355:   -244  80  10  743
1477477486.355:   -262  80  10  743
1477477486.357:   -291  80  10  743
1477477486.359:   -325  80  10  743
1477477486.359:   -351  80  10  743
1477477486.362:   -368  80  10  743
1477477486.363:   -389  80  10  743
1477477486.372:   -423  80  10  743
1477477486.372:   -466  80  10  743
1477477486.373:   -507  80  10  743
1477477486.374:   -537  80  10  743
1477477486.375:   -559  80  10  743
1477477486.377:   -584  80  10  743
1477477486.378:   -613  80  10  743
1477477486.378:   -639  80  10  743
1477477486.379:   -656  80  10  743
1477477486.381:   -670  80  10  743
1477477486.391:   -689  82  10  738
1477477486.392:   -717  82  10  738
1477477486.393:   -747  82  10  738
1477477486.393:   -772  82  10  738
1477477486.394:   -793  82  10  738
1477477486.396:   -820  82  10  738
1477477486.399:   -851  82  10  738
1477477486.401:   -874  82  10  738
1477477486.431:   -878  82  10  738
1477477486.432:   -866  82  10  738
1477477486.433:   -853  82  10  738
1477477486.434:   -849  82  10  738
1477477486.435:   -851  82  10  738
1477477486.435:   -849  82  10  738
1477477486.436:   -837  82  10  738
1477477486.440:   -820  82  10  738
1477477486.442:   -803  82  10  738
1477477486.443:   -790  82  10  738
1477477486.443:   -775  82  10  738
1477477486.444:   -756  82  10  738
1477477486.459:   -733  82  10  738
1477477486.459:   -707  82  10  738
1477477486.459:   -677  82  10  738
1477477486.459:   -646  82  10  738
1477477486.460:   -613  82  10  738
1477477486.460:   -578  82  10  738
1477477486.460:   -541  82  10  738
1477477486.460:   -500  82  10  738
1477477486.460:   -455  82  10  738
1477477486.460:   -403  82  10  738
1477477486.460:   -345  82  10  738
1477477486.461:   -287  82  10  738
1477477486.461:   -236  82  10  738
1477477486.461:   -198  82  10  738
1477477486.461:   -164  82  10  738
1477477486.461:   -125  82  10  738
1477477486.462:    -78  82  10  738
1477477486.462:    -30  82  10  738
1477477486.462:     10  82  10  738
1477477486.462:     46  82  10  738
1477477486.462:     88  82  10  738
1477477486.463:    143  82  10  738
1477477486.466:    198  82  10  738
1477477486.469:    239  82  10  738
1477477486.470:    265  82  10  738
1477477486.472:    288  82  10  738
1477477486.477:    315  82  10  738
1477477486.477:    342  82  10  738
1477477486.478:    362  82  10  738
1477477486.480:    374  82  10  738
1477477486.494:    383  82  10  738
1477477486.495:    395  82  10  738
1477477486.495:    409  82  10  738
1477477486.496:    424  82  10  738
1477477486.497:    440  82  10  738
1477477486.497:    458  82  10  738
1477477486.500:    474  82  10  738
1477477486.501:    480  82  10  738
1477477486.501:    478  82  10  738
1477477486.502:    479  82  10  738
1477477486.503:    490  82  10  738
1477477486.505:    509  82  10  738
1477477486.518:    521  82  10  738
1477477486.519:    519  82  10  738
1477477486.520:    508  82  10  738
1477477486.521:    499  82  10  738
1477477486.521:    500  82  10  738
1477477486.522:    507  82  10  738
1477477486.522:    512  82  10  738
1477477486.523:    512  82  10  738
1477477486.524:    506  82  10  738
1477477486.527:    495  82  10  738
1477477486.528:    483  82  10  738
1477477486.529:    474  82  10  738
1477477486.529:    466  82  10  738
1477477486.532:    458  82  10  738
1477477486.541:    449  82  10  738
1477477486.542:    444  82  10  738
1477477486.543:    447  82  10  738
1477477486.543:    455  82  10  738
1477477486.544:    460  82  10  738
1477477486.545:    456  82  10  738
1477477486.547:    444  82  10  738
1477477486.547:    433  82  10  738
1477477486.549:    423  82  10  738
1477477486.550:    408  82  10  738
1477477486.579:    382  82  10  738
1477477486.579:    352  82  10  738
1477477486.580:    331  82  10  738
1477477486.580:    327  82  10  738
1477477486.580:    328  82  10  738
1477477486.580:    323  82  10  738
1477477486.581:    309  82  10  738
1477477486.581:    298  82  10  738
1477477486.581:    294  82  10  738
1477477486.581:    292  82  10  738
1477477486.582:    278  82  10  738
1477477486.582:    252  82  10  738
1477477486.582:    226  82  10  738
1477477486.583:    216  82  10  738
1477477486.583:    220  82  10  738
1477477486.583:    224  82  10  738
1477477486.584:    218  82  10  738
1477477486.588:    205  82  10  738
1477477486.588:    194  82  10  738
1477477486.589:    187  82  10  738
1477477486.592:    181  82  10  738
1477477486.600:    170  82  10  738
1477477486.601:    156  82  10  738
1477477486.602:    143  82  10  738
1477477486.603:    132  82  10  738
1477477486.605:    120  82  10  738
1477477486.621:    108  82  10  738
1477477486.622:    103  82  10  738
1477477486.623:    107  82  10  738
1477477486.623:    116  82  10  738
1477477486.624:    115  82  10  738
1477477486.625:    101  82  10  738
1477477486.626:     90  82  10  738
1477477486.626:     96  82  10  738
1477477486.645:    113  82  10  738
1477477486.646:    123  82  10  738
1477477486.647:    115  82  10  738
1477477486.650:     99  82  10  738
1477477486.659:     91  82  10  738
1477477486.659:     94  82  10  738
1477477486.659:     98  82  10  738
1477477486.660:     90  82  10  738
1477477486.660:     76  82  10  738
1477477486.661:     71  82  10  738
1477477486.661:     81  82  10  738
1477477486.661:     97  82  10  738
1477477486.662:    108  82  10  738
1477477486.662:    112  82  10  738
1477477486.662:    115  82  10  738
1477477486.663:    119  82  10  738
1477477486.663:    121  82  10  738
1477477486.663:    116  82  10  738
1477477486.663:    111  82  10  738
1477477486.663:    114  82  10  738
1477477486.663:    128  82  10  738
1477477486.663:    140  82  10  738
1477477486.663:    145  82  10  738
1477477486.666:    143  82  10  738
1477477486.670:    143  82  10  738
1477477486.671:    148  82  10  738
1477477486.672:    151  82  10  738
1477477486.680:    145  82  10  738
1477477486.680:    129  82  10  738
1477477486.680:    113  82  10  738
1477477486.681:    104  82  10  738
1477477486.681:    100  82  10  738
1477477486.686:     97  82  10  738
1477477486.686:     96  82  10  738
1477477486.687:    101  82  10  738
1477477486.688:    112  82  10  738
1477477486.690:    124  82  10  738
1477477486.690:    133  82  10  738
1477477486.704:    138  82  10  738
1477477486.757:    145  82  10  738
1477477486.764:    158  82  10  738
1477477486.764:    174  82  10  738
1477477486.765:    187  82  10  738
1477477486.765:    193  82  10  738
1477477486.765:    188  82  10  738
1477477486.765:    173  82  10  738
1477477486.765:    152  82  10  738
1477477486.765:    137  82  10  738
1477477486.766:    131  82  10  738
1477477486.766:    128  82  10  738
1477477486.766:    117  82  10  738
1477477486.766:     96  82  10  738
1477477486.766:     76  82  10  738
1477477486.767:     70  82  10  738
1477477486.767:     77  82  10  738
1477477486.767:     81  82  10  738
1477477486.767:     72  82  10  738
1477477486.767:     53  82  10  738
1477477486.767:     37  82  10  738
1477477486.767:     35  82  10  738
1477477486.768:     43  82  10  738
1477477486.768:     45  82  10  738
1477477486.768:     34  82  10  738
1477477486.768:     15  82  10  738
1477477486.768:      3  82  10  738
1477477486.768:      1  82  10  738
1477477486.769:      0  82  10  738
1477477486.769:     -9  82  10  738
1477477486.769:    -27  82  10  738
1477477486.769:    -39  82  10  738
1477477486.769:    -33  82  10  738
1477477486.769:     -9  82  10  738
1477477486.770:     17  82  10  738
1477477486.770:     30  82  10  738
1477477486.770:     29  82  10  738
1477477486.770:     20  82  10  738
1477477486.771:     14  82  10  738
1477477486.771:     10  82  10  738
1477477486.777:      6  82  10  738
1477477486.777:     -2  82  10  738
1477477486.786:    -14  82  10  738
1477477486.786:    -25  82  10  738
1477477486.786:    -32  82  10  738
1477477486.786:    -37  82  10  738
1477477486.787:    -40  82  10  738
1477477486.788:    -43  82  10  738
1477477486.789:    -44  82  10  738
1477477486.792:    -48  82  10  738
1477477486.792:    -59  82  10  738
1477477486.800:    -81  82  10  738
1477477486.811:   -110  82  10  738
1477477486.811:   -130  82  10  738
1477477486.811:   -130  82  10  738
1477477486.811:   -110  82  10  738
1477477486.812:    -82  82  10  738
1477477486.812:    -56  82  10  738
1477477486.813:    -32  82  10  738
1477477486.815:      0  82  10  738
1477477486.815:     43  82  10  738
1477477486.816:     90  82  10  738
1477477486.818:    131  82  10  738
1477477486.822:    158  82  10  738
1477477486.831:    170  82  10  738
1477477486.832:    171  82  10  738
1477477486.832:    165  82  10  738
1477477486.832:    156  82  10  738
1477477486.832:    144  82  10  738
1477477486.834:    132  82  10  738
1477477486.835:    120  82  10  738
1477477486.837:    108  82  10  738
1477477486.838:     96  82  10  738
1477477486.840:     80  82  10  738
1477477486.852:     59  82  10  738
1477477486.852:     37  82  10  738
1477477486.853:     20  82  10  738
1477477486.854:      4  82  10  738
1477477486.855:    -24  82  10  738
1477477486.855:    -79  82  10  738
1477477486.856:   -152  82  10  738
1477477486.856:   -221  82  10  738
1477477486.857:   -279  82  10  738
1477477486.860:   -368  82  10  738
1477477486.861:   -541  82  10  738
1477477486.864:   -817  82  10  738
1477477486.864:  -1156  82  10  738
1477477486.865:  -1504  82  10  738
1477477486.866:  -1856  82  10  738
1477477486.872:  -2250  82  10  738
1477477486.888:  -2697  82  10  738
1477477486.889:  -3137  82  10  738
1477477486.889:  -3467  82  10  738
1477477486.889:  -3618  82  10  738
1477477486.889:  -3580  82  10  738
1477477486.890:  -3355  82  10  738
1477477486.890:  -2911  82  10  738
1477477486.890:  -2220  82  10  738
1477477486.890:  -1322  82  10  738
1477477486.891:   -349  82  10  738
1477477486.894:    555  82  10  738
1477477486.894:   1305  82  10  738
1477477486.895:   1888  82  10  738
1477477486.895:   2309  82  10  738
1477477486.898:   2543  82  10  738
1477477486.902:   2561  82  10  738
1477477486.923:   2367  82  10  738
1477477486.923:   2017  82  10  738
1477477486.923:   1595  82  10  738
1477477486.923:   1186  82  10  738
1477477486.923:    862  82  10  738
1477477486.924:    663  82  10  738
1477477486.924:    578  82  10  738
1477477486.924:    560  82  10  738
1477477486.924:    559  82  10  738
1477477486.925:    560  82  10  738
1477477486.925:    576  82  10  738
1477477486.926:    610  82  10  738
1477477486.927:    638  82  10  738
1477477486.930:    624  82  10  738
1477477486.931:    559  82  10  738
1477477486.932:    465  82  10  738
1477477486.933:    379  82  10  738
1477477486.934:    320  82  10  738
1477477486.937:    293  82  10  738
1477477486.942:    294  82  10  738
1477477486.948:    319  82  10  738
1477477486.949:    354  82  10  738
1477477486.950:    375  82  10  738
1477477486.950:    359  82  10  738
1477477486.951:    303  82  10  738
1477477486.951:    230  82  10  738
1477477486.953:    166  82  10  738
1477477486.958:    128  82  10  738
1477477486.972:    119  82  10  738
1477477486.973:    129  82  10  738
1477477486.978:    150  82  10  738
1477477486.979:    177  82  10  738
1477477486.979:    197  82  10  738
1477477486.979:    204  82  10  738
1477477486.979:    195  82  10  738
1477477486.980:    180  82  10  738
1477477486.980:    173  82  10  738
1477477486.980:    180  82  10  738
1477477486.980:    197  82  10  738
1477477486.980:    217  82  10  738
1477477486.981:    228  82  10  738
1477477486.985:    228  82  10  738
1477477486.993:    220  82  10  738
1477477486.993:    208  82  10  738
1477477486.994:    197  82  10  738
1477477486.994:    182  82  10  738
1477477486.994:    160  82  10  738
1477477486.995:    130  82  10  738
1477477486.999:    105  82  10  738
1477477487.000:     94  82  10  738
1477477487.001:     96  82  10  738
1477477487.002:     98  82  10  738
1477477487.013:     95  82  10  738
1477477487.013:     90  82  10  738
1477477487.014:     91  82  10  738
1477477487.014:    102  82  10  738
1477477487.014:    114  82  10  738
1477477487.022:    119  82  10  738
1477477487.023:    116  82  10  738
1477477487.024:    110  82  10  738
1477477487.025:    104  82  10  738
1477477487.030:     99  82  10  738
1477477487.030:     91  82  10  738
1477477487.030:     76  82  10  738
1477477487.030:     53  82  10  738
1477477487.031:     23  82  10  738
1477477487.032:     -7  82  10  738
1477477487.037:    -28  82  10  738
1477477487.038:    -42  82  10  738
1477477487.042:    -52  82  10  738
1477477487.043:    -69  82  10  738
1477477487.048:    -93  82  10  738
1477477487.060:   -117  82  10  738
1477477487.060:   -135  82  10  738
1477477487.060:   -147  82  10  738
1477477487.060:   -162  82  10  738
1477477487.061:   -191  82  10  738
1477477487.061:   -229  82  10  738
1477477487.061:   -264  82  10  738
1477477487.065:   -284  82  10  738
1477477487.067:   -291  82  10  738
1477477487.067:   -300  82  10  738
1477477487.104:   -322  82  10  738
1477477487.104:   -356  82  10  738
1477477487.104:   -392  82  10  738
1477477487.104:   -425  82  10  738
1477477487.105:   -459  82  10  738
1477477487.105:   -499  82  10  738
1477477487.105:   -545  82  10  738
1477477487.105:   -587  82  10  738
1477477487.106:   -619  82  10  738
1477477487.106:   -643  82  10  738
1477477487.106:   -663  82  10  738
1477477487.106:   -687  82  10  738
1477477487.106:   -720  82  10  738
1477477487.107:   -756  82  10  738
1477477487.107:   -787  82  10  738
1477477487.107:   -811  82  11  738
1477477487.108:   -831  82  11  738
1477477487.108:   -859  82  11  738
1477477487.108:   -897  82  11  738
1477477487.109:   -934  82  11  738
1477477487.109:   -955  82  11  738
1477477487.109:   -961  82  11  738
1477477487.110:   -964  82  11  738
1477477487.112:   -975  82  11  738
1477477487.114:   -988  82  11  738
1477477487.117:   -993  82  11  738
1477477487.121:   -985  82  11  738
1477477487.122:   -973  82  11  738
1477477487.134:   -960  82  11  738
1477477487.135:   -942  82  11  738
1477477487.135:   -915  82  11  738
1477477487.136:   -883  82  11  738
1477477487.136:   -856  82  11  738
1477477487.137:   -835  82  11  738
1477477487.137:   -807  82  11  738
1477477487.138:   -763  82  11  738
1477477487.139:   -708  82  11  738
1477477487.140:   -651  82  11  738
1477477487.143:   -597  82  11  738
1477477487.145:   -540  82  11  738
1477477487.159:   -475  82  11  738
1477477487.159:   -404  82  11  738
1477477487.159:   -336  82  11  738
1477477487.159:   -276  82  11  738
1477477487.159:   -217  82  11  738
1477477487.160:   -155  82  11  738
1477477487.160:    -92  82  11  738
1477477487.160:    -34  82  11  738
1477477487.160:     19  82  11  738
1477477487.160:     70  82  11  738
1477477487.163:    122  82  11  738
1477477487.168:    174  82  11  738
1477477487.168:    226  82  11  738
1477477487.170:    276  82  11  738
1477477487.183:    323  82  11  738
1477477487.184:    363  82  11  738
1477477487.185:    396  82  11  738
1477477487.186:    423  82  11  738
1477477487.186:    448  82  11  738
1477477487.187:    474  82  11  738
1477477487.188:    499  82  11  738
1477477487.189:    524  82  11  738
1477477487.190:    548  82  11  738
1477477487.192:    567  82  11  738
1477477487.202:    578  82  11  738
1477477487.203:    581  82  11  738
1477477487.205:    583  82  11  738
1477477487.205:    590  82  11  738
1477477487.207:    601  82  11  738
1477477487.207:    607  82  11  738
1477477487.213:    606  82  11  738
1477477487.214:    607  82  11  738
1477477487.214:    618  82  11  738
1477477487.217:    637  82  11  738
1477477487.227:    653  82  11  738
1477477487.228:    661  82  11  738
1477477487.228:    663  82  11  738
1477477487.229:    667  82  11  738
1477477487.230:    669  82  11  738
1477477487.230:    665  82  11  738
1477477487.231:    652  82  11  738
1477477487.231:    639  82  11  738
1477477487.232:    628  82  11  738
1477477487.232:    613  82  11  738
1477477487.233:    590  82  11  738
1477477487.233:    564  82  11  738
1477477487.235:    545  82  11  738
1477477487.236:    537  82  11  738
1477477487.275:    533  82  11  738
1477477487.276:    524  82  11  738
1477477487.276:    517  82  11  738
1477477487.276:    520  82  11  738
1477477487.276:    540  82  11  738
1477477487.276:    563  82  11  738
1477477487.277:    574  82  11  738
1477477487.277:    570  82  11  738
1477477487.277:    554  82  11  738
1477477487.277:    537  82  11  738
1477477487.277:    523  82  11  738
1477477487.277:    512  82  11  738
1477477487.278:    502  82  11  738
1477477487.278:    492  82  11  738
1477477487.279:    481  82  11  738
1477477487.279:    472  82  11  738
1477477487.279:    465  82  11  738
1477477487.279:    460  82  11  738
1477477487.280:    458  82  11  738
1477477487.280:    454  82  11  738
1477477487.280:    446  82  11  738
1477477487.280:    435  82  11  738
1477477487.280:    429  82  11  738
1477477487.289:    427  82  11  738
1477477487.289:    428  82  11  738
1477477487.292:    427  82  11  738
1477477487.315:    420  82  11  738
1477477487.316:    413  82  11  738
1477477487.316:    409  82  11  738
1477477487.316:    406  82  11  738
1477477487.316:    399  82  11  738
1477477487.316:    386  82  11  738
1477477487.316:    375  82  11  738
1477477487.316:    374  82  11  738
1477477487.317:    382  82  11  738
1477477487.317:    388  82  11  738
1477477487.318:    380  82  11  738
1477477487.318:    364  82  11  738
1477477487.318:    350  82  11  738
1477477487.319:    342  82  11  738
1477477487.319:    336  82  11  738
1477477487.319:    328  82  11  738
1477477487.320:    322  82  11  738
1477477487.320:    327  82  11  738
1477477487.324:    341  82  11  738
1477477487.329:    354  82  11  738
1477477487.339:    359  82  11  738
1477477487.339:    358  82  11  738
1477477487.339:    359  82  11  738
1477477487.340:    361  82  11  738
1477477487.340:    359  82  11  738
1477477487.340:    350  82  11  738
1477477487.340:    342  82  11  738
1477477487.344:    343  82  11  738
1477477487.345:    349  82  11  738
1477477487.355:    350  82  11  738
1477477487.362:    340  82  11  738
1477477487.362:    328  82  11  738
1477477487.363:    325  82  11  738
1477477487.363:    332  82  11  738
1477477487.365:    338  82  11  738
1477477487.365:    332  82  11  738
1477477487.365:    319  82  11  738
1477477487.366:    312  82  11  738
1477477487.366:    317  82  11  738
1477477487.366:    326  82  11  738
1477477487.366:    327  82  11  738
1477477487.370:    315  82  11  738
1477477487.381:    301  82  11  738
1477477487.381:    294  82  11  738
1477477487.381:    295  82  11  738
1477477487.382:    294  82  11  738
1477477487.382:    291  82  11  738
1477477487.383:    288  82  11  738
1477477487.384:    291  82  11  738
1477477487.384:    294  82  11  738
1477477487.386:    291  82  11  738
1477477487.387:    283  82  11  738
1477477487.389:    283  82  11  738
1477477487.395:    294  82  11  738
1477477487.406:    308  82  11  738
1477477487.407:    313  82  11  738
1477477487.407:    312  82  11  738
1477477487.407:    318  82  11  738
1477477487.407:    337  82  11  738
1477477487.407:    358  82  11  738
1477477487.495:    365  82  11  738
1477477487.496:    354  82  11  738
1477477487.496:    339  82  11  738
1477477487.496:    334  82  11  738
1477477487.496:    334  82  11  738
1477477487.496:    327  82  11  738
1477477487.497:    309  82  11  738
1477477487.497:    293  82  11  738
1477477487.497:    294  82  11  738
1477477487.497:    312  82  11  738
1477477487.497:    328  82  11  738
1477477487.498:    325  82  11  738
1477477487.498:    307  82  11  738
1477477487.498:    293  82  11  738
1477477487.498:    295  82  11  738
1477477487.498:    304  82  11  738
1477477487.499:    301  82  11  738
1477477487.499:    279  82  11  738
1477477487.499:    253  82  11  738
1477477487.499:    245  82  11  738
1477477487.499:    254  82  11  738
1477477487.499:    262  82  11  738
1477477487.500:    251  82  11  738
1477477487.500:    226  82  11  738
1477477487.500:    209  82  11  738
1477477487.500:    212  82  11  738
1477477487.500:    225  82  11  738
1477477487.500:    229  82  11  738
1477477487.501:    218  82  11  738
1477477487.501:    204  82  11  738
1477477487.501:    201  82  11  738
1477477487.501:    206  82  11  738
1477477487.501:    205  82  11  738
1477477487.501:    189  82  11  738
1477477487.502:    165  82  11  738
1477477487.502:    146  82  11  738
1477477487.502:    145  82  11  738
1477477487.502:    157  82  11  738
1477477487.502:    169  82  11  738
1477477487.502:    173  82  11  738
1477477487.503:    167  82  11  738
1477477487.503:    158  82  11  738
1477477487.503:    147  82  11  738
1477477487.503:    137  82  11  738
1477477487.503:    126  82  11  738
1477477487.503:    115  82  11  738
1477477487.504:    103  82  11  738
1477477487.504:     92  82  11  738
1477477487.504:     82  82  11  738
1477477487.504:     74  82  11  738
1477477487.504:     68  82  11  738
1477477487.510:     63  82  11  738
1477477487.510:     55  82  11  738
1477477487.511:     41  82  11  738
1477477487.512:     24  82  11  738
1477477487.513:      0  82  11  738
1477477487.518:    -28  82  11  738
1477477487.522:    -50  82  11  738
1477477487.533:    -52  82  11  738
1477477487.534:    -27  82  11  738
1477477487.536:     20  82  11  738
1477477487.536:     71  82  11  738
1477477487.537:    117  82  11  738
1477477487.537:    158  82  11  738
1477477487.538:    203  82  11  738
1477477487.539:    248  82  11  738
1477477487.540:    284  82  11  738
1477477487.543:    303  82  11  738
1477477487.544:    303  82  11  738
1477477487.544:    287  82  11  738
1477477487.556:    263  82  11  738
1477477487.556:    239  82  11  738
1477477487.557:    221  82  11  738
1477477487.558:    212  82  11  738
1477477487.559:    207  82  11  738
1477477487.559:    199  82  11  738
1477477487.573:    189  82  11  738
1477477487.576:    183  82  11  738
1477477487.576:    181  82  11  738
1477477487.577:    174  82  11  738
1477477487.577:    156  82  11  738
1477477487.578:    127  82  11  738
1477477487.578:     94  82  11  738
1477477487.579:     58  82  11  738
1477477487.580:     15  82  11  738
1477477487.580:    -43  82  11  738
1477477487.580:   -134  82  11  738
1477477487.580:   -283  82  11  738
1477477487.594:   -506  82  11  738
1477477487.595:   -794  82  11  738
1477477487.596:  -1120  82  11  738
1477477487.597:  -1468  82  11  738
1477477487.597:  -1852  82  11  738
1477477487.599:  -2285  82  11  738
1477477487.601:  -2740  82  11  738
1477477487.602:  -3146  82  11  738
1477477487.603:  -3431  82  11  738
1477477487.603:  -3556  82  11  738
1477477487.604:  -3504  82  11  738
1477477487.606:  -3243  82  11  738
1477477487.608:  -2731  82  11  738
1477477487.609:  -1971  82  11  738
1477477487.610:  -1044  82  11  738
1477477487.610:    -86  82  11  738
1477477487.613:    784  82  11  738
1477477487.614:   1505  82  11  738
1477477487.615:   2058  82  11  738
1477477487.617:   2432  82  11  738
1477477487.618:   2606  82  11  738
1477477487.621:   2565  82  11  738
1477477487.633:   2323  82  11  738
1477477487.634:   1941  82  11  738
1477477487.635:   1510  82  11  738
1477477487.635:   1125  82  11  738
1477477487.636:    847  82  11  738
1477477487.637:    690  82  11  738
1477477487.643:    622  82  11  738
1477477487.643:    605  82  11  738
1477477487.670:    616  82  11  738
1477477487.671:    643  82  11  738
1477477487.672:    678  82  11  738
1477477487.672:    702  82  11  738
1477477487.673:    704  82  11  738
1477477487.674:    678  82  11  738
1477477487.675:    621  82  11  738
1477477487.691:    539  82  11  738
1477477487.693:    446  82  11  738
1477477487.693:    375  82  11  738
1477477487.694:    351  82  11  738
1477477487.694:    379  82  11  738
1477477487.695:    432  82  11  738
1477477487.695:    475  82  11  738
1477477487.695:    484  82  11  738
1477477487.695:    457  82  11  738
1477477487.695:    401  82  11  738
1477477487.696:    335  82  11  738
1477477487.696:    280  82  11  738
1477477487.696:    249  82  11  738
1477477487.696:    247  82  11  738
1477477487.696:    262  82  11  738
1477477487.697:    282  82  11  738
1477477487.697:    299  82  11  738
1477477487.697:    309  82  11  738
1477477487.697:    307  82  11  738
1477477487.700:    292  82  11  738
1477477487.700:    267  82  11  738
1477477487.701:    246  82  11  738
1477477487.701:    235  82  11  738
1477477487.701:    231  82  11  738
1477477487.701:    226  82  11  738
1477477487.701:    216  82  11  738
1477477487.702:    208  82  11  738
1477477487.704:    204  82  11  738
1477477487.705:    193  82  11  738
1477477487.709:    170  82  11  738
1477477487.709:    139  82  11  738
1477477487.720:    115  82  11  738
1477477487.720:    104  82  11  738
1477477487.720:     98  82  11  738
1477477487.721:     86  82  11  738
1477477487.721:     70  82  11  738
1477477487.721:     56  82  11  738
1477477487.723:     50  82  11  738
1477477487.726:     47  82  11  738
1477477487.727:     39  82  11  738
1477477487.734:     27  82  11  738
1477477487.738:     18  82  11  738
1477477487.739:     13  82  11  738
1477477487.739:     12  82  11  738
1477477487.740:     15  82  11  738
1477477487.741:     22  82  11  738
1477477487.742:     29  82  11  738
1477477487.743:     29  82  11  738
1477477487.746:     20  82  11  738
1477477487.747:      7  82  11  738
1477477487.751:      0  82  11  738
1477477487.763:     -3  82  11  738
1477477487.764:    -15  82  11  738
1477477487.765:    -43  82  11  738
1477477487.766:    -76  82  11  738
1477477487.767:   -100  82  11  738
1477477487.768:   -109  82  11  738
1477477487.769:   -114  82  11  738
1477477487.769:   -133  82  11  738
1477477487.770:   -167  82  11  738
1477477487.770:   -206  82  11  738
1477477487.771:   -238  82  11  738
1477477487.772:   -264  82  11  738
1477477487.773:   -292  82  11  738
1477477487.778:   -321  82  11  738
1477477487.779:   -346  82  11  738
1477477487.780:   -368  82  11  738
1477477487.783:   -392  82  11  738
1477477487.784:   -423  82  11  738
1477477487.786:   -458  82  11  738
1477477487.787:   -490  82  11  738
1477477487.802:   -520  82  11  738
1477477487.803:   -554  82  11  738
1477477487.803:   -596  82  11  738
1477477487.803:   -640  82  11  738
1477477487.804:   -681  83  11  732
1477477487.804:   -719  83  11  732
1477477487.804:   -754  83  11  732
1477477487.805:   -785  83  11  732
1477477487.806:   -812  83  11  732
1477477487.807:   -839  83  11  732
1477477487.808:   -874  83  11  732
1477477487.814:   -916  83  11  732
1477477487.821:   -955  83  11  732
1477477487.821:   -980  83  11  732
1477477487.824:   -992  83  11  732
1477477487.824:  -1000  83  11  732
1477477487.826:  -1013  83  11  732
1477477487.828:  -1032  83  11  732
1477477487.828:  -1049  83  11  732
1477477487.830:  -1054  83  11  732
1477477487.831:  -1045  83  11  732
1477477487.833:  -1031  83  11  732
1477477487.843:  -1028  83  11  732
1477477487.843:  -1038  83  11  732
1477477487.843:  -1049  83  11  732
1477477487.843:  -1043  83  11  732
1477477487.843:  -1016  83  11  732
1477477487.865:   -980  83  11  732
1477477487.882:   -954  83  11  732
1477477487.882:   -937  83  11  732
1477477487.882:   -913  83  11  732
1477477487.882:   -870  83  11  732
1477477487.882:   -810  83  11  732
1477477487.883:   -747  83  11  732
1477477487.883:   -685  83  11  732
1477477487.883:   -619  83  11  732
1477477487.883:   -546  83  11  732
1477477487.883:   -466  83  11  732
1477477487.883:   -386  83  11  732
1477477487.883:   -312  83  11  732
1477477487.883:   -249  83  11  732
1477477487.884:   -196  83  11  732
1477477487.884:   -149  83  11  732
1477477487.884:    -99  83  11  732
1477477487.884:    -41  83  11  732
1477477487.886:     17  83  11  732
1477477487.886:     65  83  11  732
1477477487.887:    103  83  11  732
1477477487.887:    145  83  11  732
1477477487.890:    200  83  11  732
1477477487.890:    259  83  11  732
1477477487.893:    305  83  11  732
1477477487.893:    333  83  11  732
1477477487.897:    354  83  11  732
1477477487.897:    383  83  11  732
1477477487.925:    417  83  11  732
1477477487.928:    444  83  11  732
1477477487.928:    458  83  11  732
1477477487.930:    467  83  11  732
1477477487.930:    479  83  11  732
1477477487.930:    492  83  11  732
1477477487.931:    498  83  11  732
1477477487.931:    497  83  11  732
1477477487.931:    497  83  11  732
1477477487.931:    509  83  11  732
1477477487.931:    527  83  11  732
1477477487.933:    541  83  11  732
1477477487.934:    544  83  11  732
1477477487.934:    543  83  11  732
1477477487.934:    545  83  11  732
1477477487.934:    546  83  11  732
1477477487.934:    542  83  11  732
1477477487.935:    533  83  11  732
1477477487.935:    526  83  11  732
1477477487.936:    524  83  11  732
1477477487.937:    527  83  11  732
1477477487.939:    529  83  11  732
1477477487.941:    532  83  11  732
1477477487.942:    541  83  11  732
1477477487.946:    554  83  11  732
1477477487.947:    563  83  11  732
1477477487.950:    561  83  11  732
1477477487.951:    554  83  11  732
1477477487.957:    550  83  11  732
1477477487.974:    553  83  11  732
1477477487.974:    560  83  11  732
1477477487.975:    560  83  11  732
1477477487.975:    550  83  11  732
1477477487.976:    537  83  11  732
1477477487.976:    530  83  11  732
1477477487.976:    527  83  11  732
1477477487.977:    520  83  11  732
1477477487.977:    505  83  11  732
1477477487.977:    481  83  11  732
1477477487.978:    460  83  11  732
1477477487.980:    451  83  11  732
1477477487.980:    457  83  11  732
1477477487.980:    464  83  11  732
1477477487.983:    466  83  11  732
1477477487.984:    460  83  11  732
1477477487.994:    451  83  11  732
1477477487.994:    443  83  11  732
1477477487.994:    436  83  11  732
1477477487.995:    425  83  11  732
1477477487.995:    410  83  11  732
1477477487.996:    399  83  11  732
1477477487.997:    397  83  11  732
1477477488.001:    403  83  11  732
1477477488.002:    408  83  11  732
1477477488.007:    409  83  11  732
1477477488.007:    407  83  11  732
1477477488.009:    408  83  11  732
1477477488.010:    410  83  11  732
1477477488.011:    404  83  11  732
1477477488.016:    390  83  11  732
1477477488.016:    376  83  11  732
1477477488.021:    369  83  11  732
1477477488.030:    366  83  11  732
1477477488.035:    357  83  11  732
1477477488.035:    336  83  11  732
1477477488.035:    315  83  11  732
1477477488.036:    301  83  11  732
1477477488.036:    294  83  11  732
1477477488.036:    283  83  11  732
1477477488.036:    265  83  11  732
1477477488.036:    248  83  11  732
1477477488.043:    243  83  11  732
1477477488.044:    250  83  11  732
1477477488.044:    259  83  11  732
1477477488.045:    264  83  11  732
1477477488.047:    262  83  11  732
1477477488.049:    252  83  11  732
1477477488.050:    232  83  11  732
1477477488.056:    211  83  11  732
1477477488.072:    201  83  11  732
1477477488.072:    206  83  11  732
1477477488.072:    212  83  11  732
1477477488.073:    203  83  11  732
1477477488.073:    179  83  11  732
1477477488.073:    160  83  11  732
1477477488.073:    157  83  11  732
1477477488.073:    163  83  11  732
1477477488.074:    159  83  11  732
1477477488.075:    145  83  11  732
1477477488.080:    133  83  11  732
1477477488.080:    137  83  11  732
1477477488.081:    147  83  11  732
1477477488.081:    149  83  11  732
1477477488.081:    143  83  11  732
1477477488.084:    145  83  11  732
1477477488.084:    168  83  11  732
1477477488.087:    200  83  11  732
1477477488.088:    214  83  11  732
1477477488.093:    202  83  11  732
1477477488.093:    178  83  11  732
1477477488.095:    166  83  11  732
1477477488.100:    175  83  11  732
1477477488.100:    191  83  11  732
1477477488.113:    195  83  11  732
1477477488.191:    180  83  11  732
1477477488.202:    161  83  11  732
1477477488.202:    150  83  11  732
1477477488.202:    149  83  11  732
1477477488.203:    150  83  11  732
1477477488.203:    146  83  11  732
1477477488.203:    140  83  11  732
1477477488.203:    139  83  11  732
1477477488.203:    145  83  11  732
1477477488.204:    153  83  11  732
1477477488.204:    160  83  11  732
1477477488.204:    166  83  11  732
1477477488.204:    171  83  11  732
1477477488.204:    169  83  11  732
1477477488.204:    155  83  11  732
1477477488.204:    136  83  11  732
1477477488.205:    122  83  11  732
1477477488.205:    121  83  11  732
1477477488.205:    124  83  11  732
1477477488.205:    121  83  11  732
1477477488.205:    113  83  11  732
1477477488.205:    111  83  11  732
1477477488.206:    119  83  11  732
1477477488.206:    131  83  11  732
1477477488.206:    135  83  11  732
1477477488.206:    128  83  11  732
1477477488.206:    116  83  11  732
1477477488.206:    103  83  11  732
1477477488.206:     89  83  11  732
1477477488.206:     70  83  11  732
1477477488.207:     51  83  11  732
1477477488.207:     41  83  11  732
1477477488.207:     36  83  11  732
1477477488.207:     26  83  11  732
1477477488.208:      4  83  11  732
1477477488.208:    -23  83  11  732
1477477488.208:    -36  83  11  732
1477477488.208:    -27  83  11  732
1477477488.208:     -7  83  11  732
1477477488.208:      4  83  11  732
1477477488.208:     -2  83  11  732
1477477488.209:    -16  83  11  732
1477477488.209:    -20  83  11  732
1477477488.209:    -10  83  11  732
1477477488.209:      2  83  11  732
1477477488.209:      0  83  11  732
1477477488.209:    -20  83  11  732
1477477488.210:    -44  83  11  732
1477477488.210:    -55  83  11  732
1477477488.210:    -48  83  11  732
1477477488.211:    -31  83  11  732
1477477488.213:    -16  83  11  732
1477477488.213:    -13  83  11  732
1477477488.213:    -25  83  11  732
1477477488.216:    -43  83  11  732
1477477488.232:    -58  83  11  732
1477477488.232:    -62  83  11  732
1477477488.233:    -58  83  11  732
1477477488.233:    -58  83  11  732
1477477488.233:    -69  83  11  732
1477477488.233:    -90  83  11  732
1477477488.234:   -108  83  11  732
1477477488.234:   -115  83  11  732
1477477488.234:   -118  83  11  732
1477477488.234:   -128  83  11  732
1477477488.235:   -149  83  11  732
1477477488.235:   -179  83  11  732
1477477488.235:   -211  83  11  732
1477477488.237:   -242  83  11  732
1477477488.237:   -266  83  11  732
1477477488.240:   -273  83  11  732
1477477488.245:   -253  83  11  732
1477477488.245:   -211  83  11  732
1477477488.246:   -162  83  11  732
1477477488.247:   -121  83  11  732
1477477488.250:    -86  83  11  732
1477477488.252:    -49  83  11  732
1477477488.265:     -9  83  11  732
1477477488.266:     28  83  11  732
1477477488.267:     56  83  11  732
1477477488.268:     76  83  11  732
1477477488.269:     88  83  11  732
1477477488.270:     89  83  11  732
1477477488.271:     73  83  11  732
1477477488.271:     46  83  11  732
1477477488.272:     23  83  11  732
1477477488.272:     15  83  11  732
1477477488.273:     18  83  11  732
1477477488.277:     18  83  11  732
1477477488.285:      9  83  11  732
1477477488.285:     -6  83  11  732
1477477488.286:    -20  83  11  732
1477477488.287:    -32  83  11  732
1477477488.287:    -47  83  11  732
1477477488.288:    -70  83  11  732
1477477488.289:   -106  83  11  732
1477477488.294:   -156  83  11  732
1477477488.305:   -216  83  11  732
1477477488.305:   -281  83  11  732
1477477488.306:   -368  83  11  732
1477477488.306:   -513  83  11  732
1477477488.309:   -745  83  11  732
1477477488.309:  -1060  83  11  732
1477477488.310:  -1421  83  11  732
1477477488.311:  -1807  83  11  732
1477477488.312:  -2230  83  11  732
1477477488.316:  -2710  83  11  732
1477477488.318:  -3213  83  11  732
1477477488.318:  -3648  83  11  732
1477477488.319:  -3923  83  11  732
1477477488.320:  -3998  83  11  732
1477477488.320:  -3872  83  11  732
1477477488.322:  -3529  83  11  732
1477477488.327:  -2932  83  11  732
1477477488.327:  -2083  83  11  732
1477477488.343:  -1075  83  11  732
1477477488.344:    -62  83  11  732
1477477488.346:    828  83  11  732
1477477488.347:   1544  83  11  732
1477477488.347:   2085  83  11  732
1477477488.348:   2438  83  11  732
1477477488.348:   2570  83  11  732
1477477488.348:   2465  83  11  732
1477477488.349:   2162  83  11  732
1477477488.349:   1745  83  11  732
1477477488.349:   1306  83  11  732
1477477488.350:    924  83  11  732
1477477488.351:    648  83  11  732
1477477488.354:    496  83  11  732
1477477488.362:    446  83  11  732
1477477488.362:    449  83  11  732
1477477488.362:    463  83  11  732
1477477488.363:    472  83  11  732
1477477488.363:    488  83  11  732
1477477488.364:    510  83  11  732
1477477488.368:    517  83  11  732
1477477488.369:    483  83  11  732
1477477488.373:    406  83  11  732
1477477488.373:    309  83  11  732
1477477488.375:    229  83  11  732
1477477488.377:    188  83  11  732
1477477488.379:    184  83  11  732
1477477488.381:    210  83  11  732
1477477488.383:    252  83  11  732
1477477488.386:    290  83  11  732
1477477488.401:    299  83  11  732
1477477488.402:    264  83  11  732
1477477488.402:    199  83  11  732
1477477488.403:    129  83  11  732
1477477488.404:     82  83  11  732
1477477488.404:     67  83  11  732
1477477488.405:     73  83  11  732
1477477488.405:     91  83  11  732
1477477488.406:    113  83  11  732
1477477488.407:    133  83  11  732
1477477488.418:    141  83  11  732
1477477488.418:    132  83  11  732
1477477488.418:    112  83  11  732
1477477488.418:     92  83  11  732
1477477488.418:     87  83  11  732
1477477488.418:     96  83  11  732
1477477488.419:    111  83  11  732
1477477488.419:    119  83  11  732
1477477488.422:    114  83  11  732
1477477488.423:    101  83  11  732
1477477488.428:     86  83  11  732
1477477488.428:     74  83  11  732
1477477488.431:     62  83  11  732
1477477488.432:     41  83  11  732
1477477488.434:     14  83  11  732
1477477488.436:     -5  83  11  732
1477477488.437:     -1  83  11  732
1477477488.441:     17  83  11  732
1477477488.454:     31  83  11  732
1477477488.455:     30  83  11  732
1477477488.455:     24  83  11  732
1477477488.456:     24  83  11  732
1477477488.457:     31  83  11  732
1477477488.458:     27  83  11  732
1477477488.459:      9  83  11  732
1477477488.460:    -10  83  11  732
1477477488.460:    -15  83  11  732
1477477488.461:    -12  83  11  732
1477477488.461:    -19  83  11  732
1477477488.464:    -39  83  11  732
1477477488.473:    -62  83  11  732
1477477488.474:    -72  83  11  732
1477477488.476:    -69  83  11  732
1477477488.476:    -68  83  11  732
1477477488.477:    -76  83  11  732
1477477488.477:    -90  83  11  732
1477477488.478:   -105  83  11  732
1477477488.479:   -116  83  11  732
1477477488.483:   -118  83  11  732
1477477488.484:   -115  83  11  732
1477477488.491:   -121  83  11  732
1477477488.493:   -153  83  11  732
1477477488.493:   -209  83  11  732
1477477488.494:   -261  83  11  732
1477477488.497:   -282  83  11  732
1477477488.500:   -276  83  11  732
1477477488.520:   -277  83  11  732
1477477488.520:   -309  83  11  732
1477477488.520:   -362  83  11  732
1477477488.521:   -404  83  11  732
1477477488.521:   -424  83  11  732
1477477488.521:   -436  83  11  732
1477477488.521:   -463  83  11  732
1477477488.521:   -509  83  11  732
1477477488.522:   -563  83  11  732
1477477488.522:   -615  83  11  732
1477477488.522:   -659  84  11  728
1477477488.522:   -689  84  11  728
1477477488.523:   -702  84  11  728
1477477488.523:   -709  84  11  728
1477477488.524:   -733  84  11  728
1477477488.526:   -788  84  11  728
1477477488.530:   -858  84  11  728
1477477488.531:   -913  84  11  728
1477477488.534:   -938  84  11  728
1477477488.535:   -948  84  11  728
1477477488.544:   -966  84  11  728
1477477488.545:   -994  84  11  728
1477477488.545:  -1019  84  11  728
1477477488.545:  -1025  84  11  728
1477477488.552:  -1016  84  11  728
1477477488.554:  -1007  84  11  728
1477477488.565:  -1010  84  11  728
1477477488.565:  -1018  84  11  728
1477477488.565:  -1023  84  11  728
1477477488.565:  -1022  84  11  728
1477477488.566:  -1017  84  11  728
1477477488.566:  -1014  84  11  728
1477477488.566:  -1015  84  11  728
1477477488.566:  -1005  84  11  728
1477477488.567:   -978  84  11  728
1477477488.570:   -935  84  11  728
1477477488.571:   -893  84  11  728
1477477488.572:   -867  84  11  728
1477477488.574:   -854  84  11  728
1477477488.575:   -831  84  11  728
1477477488.586:   -777  84  11  728
1477477488.586:   -692  84  11  728
1477477488.586:   -605  84  11  728
1477477488.587:   -543  84  11  728
1477477488.587:   -510  84  11  728
1477477488.587:   -480  84  11  728
1477477488.587:   -420  84  11  728
1477477488.593:   -322  84  11  728
1477477488.594:   -217  84  11  728
1477477488.594:   -151  84  11  728
1477477488.596:   -137  84  11  728
1477477488.597:   -134  84  11  728
1477477488.601:    -90  84  11  728
1477477488.602:      4  84  11  728
1477477488.609:    106  84  11  728
1477477488.609:    164  84  11  728
1477477488.609:    175  84  11  728
1477477488.613:    188  84  11  728
1477477488.613:    241  84  11  728
1477477488.615:    320  84  11  728
1477477488.617:    383  84  11  728
1477477488.618:    411  84  11  728
1477477488.636:    427  84  11  728
1477477488.636:    456  84  11  728
1477477488.637:    496  84  11  728
1477477488.637:    521  84  11  728
1477477488.637:    527  84  11  728
1477477488.637:    534  84  11  728
1477477488.637:    554  84  11  728
1477477488.637:    572  84  11  728
1477477488.637:    568  84  11  728
1477477488.638:    548  84  11  728
1477477488.638:    542  84  11  728
1477477488.643:    562  84  11  728
1477477488.643:    588  84  11  728
1477477488.645:    592  84  11  728
1477477488.652:    574  84  11  728
1477477488.653:    564  84  11  728
1477477488.661:    582  84  11  728
1477477488.661:    612  84  11  728
1477477488.661:    628  84  11  728
1477477488.661:    621  84  11  728
1477477488.661:    606  84  11  728
1477477488.661:    598  84  11  728
1477477488.662:    600  84  11  728
1477477488.665:    603  84  11  728
1477477488.665:    602  84  11  728
1477477488.666:    597  84  11  728
1477477488.669:    584  84  11  728
1477477488.675:    556  84  11  728
1477477488.687:    519  84  11  728
1477477488.688:    491  84  11  728
1477477488.688:    494  84  11  728
1477477488.688:    521  84  11  728
1477477488.689:    546  84  11  728
1477477488.689:    545  84  11  728
1477477488.689:    521  84  11  728
1477477488.690:    502  84  11  728
1477477488.693:    505  84  11  728
1477477488.693:    513  84  11  728
1477477488.694:    503  84  11  728
1477477488.698:    469  84  11  728
1477477488.698:    433  84  11  728
1477477488.702:    416  84  11  728
1477477488.702:    417  84  11  728
1477477488.704:    419  84  11  728
1477477488.705:    415  84  11  728
1477477488.707:    408  84  11  728
1477477488.708:    400  84  11  728
1477477488.710:    392  84  11  728
1477477488.722:    388  84  11  728
1477477488.723:    398  84  11  728
1477477488.723:    420  84  11  728
1477477488.725:    430  84  11  728
1477477488.726:    405  84  11  728
1477477488.727:    358  84  11  728
1477477488.728:    331  84  11  728
1477477488.730:    343  84  11  728
1477477488.731:    367  84  11  728
1477477488.736:    363  84  11  728
1477477488.746:    324  84  11  728
1477477488.746:    288  84  11  728
1477477488.747:    289  84  11  728
1477477488.747:    313  84  11  728
1477477488.749:    325  84  11  728
1477477488.752:    318  84  11  728
1477477488.752:    315  84  11  728
1477477488.753:    331  84  11  728
1477477488.753:    348  84  11  728
1477477488.754:    335  84  11  728
1477477488.754:    292  84  11  728
1477477488.756:    257  84  11  728
1477477488.768:    262  84  11  728
1477477488.769:    296  84  11  728
1477477488.771:    319  84  11  728
1477477488.772:    301  84  11  728
1477477488.773:    255  84  11  728
1477477488.774:    219  84  11  728
1477477488.774:    219  84  11  728
1477477488.775:    241  84  11  728
1477477488.776:    248  84  11  728
1477477488.777:    223  84  11  728
1477477488.793:    191  84  11  728
1477477488.794:    187  84  11  728
1477477488.794:    217  84  11  728
1477477488.794:    249  84  11  728
1477477488.794:    245  84  11  728
1477477488.794:    206  84  11  728
1477477488.795:    173  84  11  728
1477477488.795:    181  84  11  728
1477477488.795:    222  84  11  728
1477477488.795:    252  84  11  728
1477477488.797:    239  84  11  728
1477477488.798:    193  84  11  728
1477477488.809:    155  84  11  728
1477477488.810:    162  84  11  728
1477477488.810:    212  84  11  728
1477477488.810:    266  84  11  728
1477477488.810:    286  84  11  728
1477477488.811:    268  84  11  728
1477477488.811:    241  84  11  728
1477477488.814:    238  84  11  728
1477477488.814:    253  84  11  728
1477477488.816:    254  84  11  728
1477477488.820:    231  84  11  728
1477477488.821:    214  84  11  728
1477477488.825:    242  84  11  728
1477477488.881:    291  84  11  728
1477477488.881:    295  84  11  728
1477477488.881:    231  84  11  728
1477477488.881:    160  84  11  728
1477477488.882:    164  84  11  728
1477477488.882:    236  84  11  728
1477477488.883:    281  84  11  728
1477477488.883:    235  84  11  728
1477477488.883:    148  84  11  728
1477477488.883:    124  84  11  728
1477477488.883:    188  84  11  728
1477477488.883:    258  84  11  728
1477477488.883:    260  84  11  728
1477477488.884:    215  84  11  728
1477477488.884:    198  84  11  728
1477477488.884:    228  84  11  728
1477477488.884:    252  84  11  728
1477477488.884:    223  84  11  728
1477477488.884:    170  84  11  728
1477477488.885:    155  84  11  728
1477477488.885:    191  84  11  728
1477477488.885:    231  84  11  728
1477477488.885:    229  84  11  728
1477477488.885:    189  84  11  728
1477477488.885:    145  84  11  728
1477477488.885:    121  84  11  728
1477477488.885:    127  84  11  728
1477477488.886:    157  84  11  728
1477477488.886:    188  84  11  728
1477477488.886:    189  84  11  728
1477477488.886:    147  84  11  728
1477477488.886:     96  84  11  728
1477477488.886:     87  84  11  728
1477477488.893:    122  84  11  728
1477477488.894:    149  84  11  728
1477477488.906:    125  84  11  728
1477477488.906:     70  84  11  728
1477477488.906:     36  84  11  728
1477477488.906:     37  84  11  728
1477477488.909:     38  84  11  728
1477477488.909:     19  84  11  728
1477477488.910:     10  84  11  728
1477477488.910:     42  84  11  728
1477477488.910:     86  84  11  728
1477477488.916:     81  84  11  728
1477477488.934:     22  84  11  728
1477477488.935:    -22  84  11  728
1477477488.935:      5  84  11  728
1477477488.935:     69  84  11  728
1477477488.935:     89  84  11  728
1477477488.935:     38  84  11  728
1477477488.935:    -21  84  11  728
1477477488.936:    -22  84  11  728
1477477488.936:     15  84  11  728
1477477488.936:     20  84  11  728
1477477488.937:    -27  84  11  728
1477477488.937:    -67  84  11  728
1477477488.941:    -44  84  11  728
1477477488.943:     13  84  11  728
1477477488.944:     31  84  11  728
1477477488.945:    -20  84  11  728
1477477488.959:    -88  84  11  728
1477477488.960:   -110  84  11  728
1477477488.960:    -76  84  11  728
1477477488.960:    -31  84  11  728
1477477488.960:     -9  84  11  728
1477477488.961:     -5  84  11  728
1477477488.961:      9  84  11  728
1477477488.964:     52  84  11  728
1477477488.966:    127  84  11  728
1477477488.966:    228  84  11  728
1477477488.968:    323  84  11  728
1477477488.978:    362  84  11  728
1477477488.985:    318  84  11  728
1477477488.986:    233  84  11  728
1477477488.986:    188  84  11  728
1477477488.989:    223  84  11  728
1477477488.990:    286  84  11  728
1477477488.990:    285  84  11  728
1477477488.990:    203  84  11  728
1477477488.990:    119  84  11  728
1477477488.990:    124  84  11  728
1477477488.990:    215  84  11  728
1477477489.001:    292  84  11  728
1477477489.002:    272  84  11  728
1477477489.023:    178  84  11  728
1477477489.023:    104  84  11  728
1477477489.023:    100  84  11  728
1477477489.024:    118  84  11  728
1477477489.024:     83  84  11  728
1477477489.024:    -12  84  11  728
1477477489.025:   -118  84  11  728
1477477489.025:   -218  84  11  728
1477477489.025:   -363  84  11  728
1477477489.025:   -606  84  11  728
1477477489.025:   -930  84  11  728
1477477489.026:  -1269  84  11  728
1477477489.026:  -1601  84  11  728
1477477489.026:  -1985  84  11  728
1477477489.026:  -2471  84  11  728
1477477489.027:  -2989  84  11  728
1477477489.027:  -3371  84  11  728
1477477489.062:  -3487  84  11  728
1477477489.074:  -3350  84  11  728
1477477489.075:  -3058  84  11  728
1477477489.075:  -2658  84  11  728
1477477489.075:  -2091  84  11  728
1477477489.075:  -1287  84  11  728
1477477489.075:   -292  84  11  728
1477477489.075:    716  84  11  728
1477477489.075:   1550  84  11  728
1477477489.076:   2132  84  11  728
1477477489.076:   2501  84  11  728
1477477489.076:   2722  84  11  728
1477477489.076:   2802  84  11  728
1477477489.076:   2701  84  11  728
1477477489.076:   2411  84  11  728
1477477489.076:   2018  84  11  728
1477477489.077:   1648  84  11  728
1477477489.077:   1380  84  11  728
1477477489.077:   1207  84  11  728
1477477489.077:   1073  84  11  728
1477477489.077:    947  84  11  728
1477477489.077:    852  84  11  728
1477477489.077:    814  84  11  728
1477477489.077:    810  84  11  728
1477477489.078:    783  84  11  728
1477477489.078:    698  84  11  728
1477477489.079:    584  84  11  728
1477477489.079:    500  84  11  728
1477477489.079:    472  84  11  728
1477477489.081:    477  84  11  728
1477477489.084:    475  84  11  728
1477477489.086:    446  84  11  728
1477477489.087:    408  84  11  728
1477477489.094:    395  84  11  728
1477477489.094:    420  84  11  728
1477477489.095:    465  84  11  728
1477477489.096:    478  84  11  728
1477477489.097:    424  84  11  728
1477477489.102:    317  84  11  728
1477477489.102:    228  84  11  728
1477477489.106:    209  84  11  728
1477477489.107:    246  84  11  728
1477477489.109:    277  84  11  728
1477477489.110:    263  84  11  728
1477477489.111:    223  84  11  728
1477477489.129:    196  84  11  728
1477477489.130:    183  84  11  728
1477477489.131:    164  84  11  728
1477477489.131:    141  84  11  728
1477477489.133:    154  84  11  728
1477477489.134:    207  84  11  728
1477477489.135:    250  84  11  728
1477477489.136:    235  84  11  728
1477477489.136:    181  84  11  728
1477477489.137:    159  84  11  728
1477477489.150:    201  84  11  728
1477477489.150:    260  84  11  728
1477477489.151:    274  84  11  728
1477477489.152:    239  84  11  728
1477477489.153:    197  84  11  728
1477477489.153:    173  84  11  728
1477477489.154:    148  84  11  728
1477477489.155:    114  84  11  728
1477477489.156:    101  84  11  728
1477477489.156:    140  84  11  728
1477477489.167:    201  84  11  728
1477477489.167:    226  84  11  728
1477477489.168:    182  84  11  728
1477477489.169:    112  84  11  728
1477477489.169:     81  84  11  728
1477477489.169:    102  84  11  728
1477477489.170:    121  84  11  728
1477477489.170:     85  84  11  728
1477477489.171:      3  84  11  728
1477477489.171:    -65  84  11  728
1477477489.173:    -77  84  11  728
1477477489.178:    -51  84  11  728
1477477489.204:    -37  84  11  728
1477477489.205:    -51  84  11  728
1477477489.215:    -59  84  11  728
1477477489.216:    -32  84  11  728
1477477489.216:      6  84  11  728
1477477489.216:     -5  84  11  728
1477477489.217:    -74  84  11  728
1477477489.217:   -148  84  11  728
1477477489.217:   -169  84  11  728
1477477489.217:   -150  84  11  728
1477477489.217:   -155  84  11  728
1477477489.218:   -209  84  11  728
1477477489.218:   -264  84  11  728
1477477489.218:   -262  84  11  728
1477477489.218:   -219  84  11  728
1477477489.220:   -215  84  11  728
1477477489.220:   -285  84  11  728
1477477489.220:   -371  84  11  728
1477477489.221:   -395  84  11  728
1477477489.221:   -354  84  11  728
1477477489.226:   -320  84  11  728
1477477489.226:   -352  84  11  728
1477477489.237:   -424  84  11  728
1477477489.238:   -462  84  11  728
1477477489.240:   -441  84  11  728
1477477489.240:   -417  84  11  728
1477477489.252:   -453  84  11  728
1477477489.252:   -539  84  11  728
1477477489.253:   -607  84  11  728
1477477489.253:   -616  84  11  728
1477477489.253:   -598  84  11  728
1477477489.256:   -621  83  11  724
1477477489.256:   -703  83  11  724
1477477489.256:   -782  83  11  724
1477477489.257:   -792  83  11  724
1477477489.257:   -734  83  11  724
1477477489.258:   -685  83  11  724
1477477489.260:   -711  83  11  724
1477477489.270:   -804  83  11  724
1477477489.270:   -888  83  11  724
1477477489.270:   -892  83  11  724
1477477489.271:   -823  83  11  724
1477477489.271:   -749  83  11  724
1477477489.271:   -733  83  11  724
1477477489.272:   -772  83  11  724
1477477489.272:   -814  83  11  724
1477477489.272:   -809  83  11  724
1477477489.272:   -754  83  11  724
1477477489.273:   -693  83  11  724
1477477489.274:   -666  83  11  724
1477477489.276:   -676  83  11  724
1477477489.278:   -691  83  11  724
1477477489.289:   -676  83  11  724
1477477489.289:   -627  83  11  724
1477477489.289:   -563  83  11  724
1477477489.289:   -510  83  11  724
1477477489.289:   -474  83  11  724
1477477489.289:   -445  83  11  724
1477477489.290:   -413  83  11  724
1477477489.292:   -379  83  11  724
1477477489.297:   -340  83  11  724
1477477489.297:   -288  83  11  724
1477477489.308:   -222  83  11  724
1477477489.308:   -154  83  11  724
1477477489.308:    -98  83  11  724
1477477489.308:    -60  83  11  724
1477477489.308:    -24  83  11  724
1477477489.309:     28  83  11  724
1477477489.312:     96  83  11  724
1477477489.312:    158  83  11  724
1477477489.314:    193  83  11  724
1477477489.315:    204  83  11  724
1477477489.320:    211  83  11  724
1477477489.320:    232  83  11  724
1477477489.342:    263  83  11  724
1477477489.342:    291  83  11  724
1477477489.342:    308  83  11  724
1477477489.342:    321  83  11  724
1477477489.343:    339  83  11  724
1477477489.343:    365  83  11  724
1477477489.343:    393  83  11  724
1477477489.343:    417  83  11  724
1477477489.343:    437  83  11  724
1477477489.343:    456  83  11  724
1477477489.343:    480  83  11  724
1477477489.343:    504  83  11  724
1477477489.344:    513  83  11  724
1477477489.346:    500  83  11  724
1477477489.348:    476  83  11  724
1477477489.352:    470  83  11  724
1477477489.363:    496  83  11  724
1477477489.363:    535  83  11  724
1477477489.364:    549  83  11  724
1477477489.364:    521  83  11  724
1477477489.364:    476  83  11  724
1477477489.364:    460  83  11  724
1477477489.366:    488  83  11  724
1477477489.367:    526  83  11  724
1477477489.371:    528  83  11  724
1477477489.372:    487  83  11  724
1477477489.373:    440  83  11  724
1477477489.377:    429  83  11  724
1477477489.378:    455  83  11  724
1477477489.382:    481  83  11  724
1477477489.403:    478  83  11  724
1477477489.403:    450  83  11  724
1477477489.404:    425  83  11  724
1477477489.405:    417  83  11  724
1477477489.406:    412  83  11  724
1477477489.409:    394  83  11  724
1477477489.409:    365  83  11  724
1477477489.409:    342  83  11  724
1477477489.410:    335  83  11  724
1477477489.410:    337  83  11  724
1477477489.411:    337  83  11  724
1477477489.411:    335  83  11  724
1477477489.411:    341  83  11  724
1477477489.412:    353  83  11  724
1477477489.423:    365  83  11  724
1477477489.424:    368  83  11  724
1477477489.424:    360  83  11  724
1477477489.424:    350  83  11  724
1477477489.425:    342  83  11  724
1477477489.425:    334  83  11  724
1477477489.425:    320  83  11  724
1477477489.426:    305  83  11  724
1477477489.427:    292  83  11  724
1477477489.428:    279  83  11  724
1477477489.431:    263  83  11  724
1477477489.432:    245  83  11  724
1477477489.436:    230  83  11  724
1477477489.437:    225  83  11  724
1477477489.447:    231  83  11  724
1477477489.447:    239  83  11  724
1477477489.447:    244  83  11  724
1477477489.447:    246  83  11  724
1477477489.447:    246  83  11  724
1477477489.448:    246  83  11  724
1477477489.448:    242  83  11  724
1477477489.452:    233  83  11  724
1477477489.452:    217  83  11  724
1477477489.452:    202  83  11  724
1477477489.460:    192  83  11  724
1477477489.460:    190  83  11  724
1477477489.468:    189  83  11  724
1477477489.468:    186  83  11  724
1477477489.468:    180  83  11  724
1477477489.468:    174  83  11  724
1477477489.468:    171  83  11  724
1477477489.468:    171  83  11  724
1477477489.471:    169  83  11  724
1477477489.479:    164  83  11  724
1477477489.489:    158  83  11  724
1477477489.489:    158  83  11  724
1477477489.489:    163  83  11  724
1477477489.489:    167  83  11  724
1477477489.489:    165  83  11  724
1477477489.490:    155  83  11  724
1477477489.491:    142  83  11  724
1477477489.491:    135  83  11  724
1477477489.491:    137  83  11  724
1477477489.495:    143  83  11  724
1477477489.497:    150  83  11  724
1477477489.498:    157  83  11  724
1477477489.499:    167  83  11  724
1477477489.502:    180  83  11  724
1477477489.502:    192  83  11  724
1477477489.504:    200  83  11  724
1477477489.506:    198  83  11  724
1477477489.511:    187  83  11  724
1477477489.519:    173  83  11  724
1477477489.519:    163  83  11  724
1477477489.519:    163  83  11  724
1477477489.520:    171  83  11  724
1477477489.520:    175  83  11  724
1477477489.521:    165  83  11  724
1477477489.522:    149  83  11  724
1477477489.523:    143  83  11  724
1477477489.527:    151  83  11  724
1477477489.530:    161  83  11  724
1477477489.552:    157  83  11  724
1477477489.553:    135  83  11  724
1477477489.554:    116  83  11  724
1477477489.555:    120  83  11  724
1477477489.555:    141  83  11  724
1477477489.627:    156  83  11  724
1477477489.627:    147  83  11  724
1477477489.627:    124  83  11  724
1477477489.627:    110  83  11  724
1477477489.628:    117  83  11  724
1477477489.628:    134  83  11  724
1477477489.628:    142  83  11  724
1477477489.628:    132  83  11  724
1477477489.628:    118  83  11  724
1477477489.640:    112  83  11  724
1477477489.640:    119  83  11  724
1477477489.640:    127  83  11  724
1477477489.641:    125  83  11  724
1477477489.641:    108  83  11  724
1477477489.641:     84  83  11  724
1477477489.641:     65  83  11  724
1477477489.641:     55  83  11  724
1477477489.641:     50  83  11  724
1477477489.642:     46  83  11  724
1477477489.642:     43  83  11  724
1477477489.642:     42  83  11  724
1477477489.642:     44  83  11  724
1477477489.642:     44  83  11  724
1477477489.642:     36  83  11  724
1477477489.643:     23  83  11  724
1477477489.643:     11  83  11  724
1477477489.643:      6  83  11  724
1477477489.643:      5  83  11  724
1477477489.643:     11  83  11  724
1477477489.644:     26  83  11  724
1477477489.644:     49  83  11  724
1477477489.644:     69  83  11  724
1477477489.645:     74  83  11  724
1477477489.646:     62  83  11  724
1477477489.646:     47  83  11  724
1477477489.646:     42  83  11  724
1477477489.646:     42  83  11  724
1477477489.647:     31  83  11  724
1477477489.647:      7  83  11  724
1477477489.647:    -13  83  11  724
1477477489.647:    -14  83  11  724
1477477489.647:      1  83  11  724
1477477489.648:     13  83  11  724
1477477489.648:     10  83  11  724
1477477489.648:     -5  83  11  724
1477477489.648:    -23  83  11  724
1477477489.648:    -42  83  11  724
1477477489.648:    -66  83  11  724
1477477489.648:    -90  83  11  724
1477477489.649:   -102  83  11  724
1477477489.649:    -94  83  11  724
1477477489.649:    -69  83  11  724
1477477489.649:    -34  83  11  724
1477477489.650:      8  83  11  724
1477477489.650:     58  83  11  724
1477477489.650:    113  83  11  724
1477477489.650:    160  83  11  724
1477477489.657:    194  83  11  724
1477477489.657:    220  83  11  724
1477477489.657:    243  83  11  724
1477477489.660:    261  83  11  724
1477477489.660:    261  83  11  724
1477477489.660:    245  83  11  724
1477477489.664:    226  83  11  724
1477477489.669:    217  83  11  724
1477477489.675:    221  83  11  724
1477477489.675:    226  83  11  724
1477477489.675:    223  83  11  724
1477477489.675:    211  83  11  724
1477477489.676:    202  83  11  724
1477477489.678:    201  83  11  724
1477477489.681:    196  83  11  724
1477477489.682:    176  83  11  724
1477477489.683:    136  83  11  724
1477477489.684:     80  83  11  724
1477477489.685:     17  83  11  724
1477477489.690:    -47  83  11  724
1477477489.695:   -108  83  11  724
1477477489.696:   -170  83  11  724
1477477489.697:   -247  83  11  724
1477477489.699:   -368  83  11  724
1477477489.700:   -561  83  11  724
1477477489.701:   -834  83  11  724
1477477489.705:  -1169  83  11  724
1477477489.706:  -1549  83  11  724
1477477489.720:  -1969  83  11  724
1477477489.720:  -2424  83  11  724
1477477489.720:  -2880  83  11  724
1477477489.720:  -3263  83  11  724
1477477489.720:  -3497  83  11  724
1477477489.720:  -3542  83  11  724
1477477489.720:  -3388  83  11  724
1477477489.724:  -3018  83  11  724
1477477489.724:  -2401  83  11  724
1477477489.726:  -1542  83  11  724
1477477489.732:   -535  83  11  724
1477477489.733:    456  83  11  724
1477477489.740:   1286  83  11  724
1477477489.741:   1908  83  11  724
1477477489.741:   2360  83  11  724
1477477489.742:   2672  83  11  724
1477477489.745:   2810  83  11  724
1477477489.746:   2716  83  11  724
1477477489.747:   2395  83  11  724
1477477489.748:   1948  83  11  724
1477477489.750:   1512  83  11  724
1477477489.753:   1173  83  11  724
1477477489.755:    942  83  11  724
1477477489.756:    789  83  11  724
1477477489.757:    692  83  11  724
1477477489.758:    643  83  11  724
1477477489.761:    629  83  11  724
1477477489.765:    628  83  11  724
1477477489.781:    620  83  11  724
1477477489.782:    601  83  11  724
1477477489.783:    576  83  11  724
1477477489.785:    540  83  11  724
1477477489.786:    484  83  11  724
1477477489.787:    412  83  11  724
1477477489.788:    348  83  11  724
1477477489.790:    318  83  11  724
1477477489.799:    324  83  11  724
1477477489.800:    345  83  11  724
1477477489.801:    361  83  11  724
1477477489.802:    360  83  11  724
1477477489.802:    339  83  11  724
1477477489.803:    299  83  11  724
1477477489.803:    241  83  11  724
1477477489.804:    179  83  11  724
1477477489.805:    132  83  11  724
1477477489.805:    110  83  11  724
1477477489.806:    112  83  11  724
1477477489.806:    123  83  11  724
1477477489.817:    138  83  11  724
1477477489.819:    154  83  11  724
1477477489.820:    164  83  11  724
1477477489.821:    160  83  11  724
1477477489.821:    137  83  11  724
1477477489.822:    108  83  11  724
1477477489.823:     91  83  11  724
1477477489.823:     96  83  11  724
1477477489.825:    113  83  11  724
1477477489.825:    126  83  11  724
1477477489.836:    124  83  11  724
1477477489.837:    113  83  11  724
1477477489.837:    100  83  11  724
1477477489.837:     91  83  11  724
1477477489.837:     87  83  11  724
1477477489.837:     86  83  11  724
1477477489.837:     85  83  11  724
1477477489.838:     84  83  11  724
1477477489.842:     82  83  11  724
1477477489.843:     82  83  11  724
1477477489.844:     82  83  11  724
1477477489.846:     77  83  11  724
1477477489.847:     66  83  11  724
1477477489.848:     52  83  11  724
1477477489.858:     42  83  11  724
1477477489.858:     34  83  11  724
1477477489.858:     22  83  11  724
1477477489.859:      5  83  11  724
1477477489.861:     -7  83  11  724
1477477489.863:     -9  83  11  724
1477477489.863:     -7  83  11  724
1477477489.866:    -14  83  11  724
1477477489.867:    -34  83  11  724
1477477489.868:    -59  83  11  724
1477477489.898:    -76  83  11  724
1477477489.899:    -87  83  11  724
1477477489.900:   -104  83  11  724
1477477489.901:   -132  83  11  724
1477477489.902:   -161  83  11  724
1477477489.902:   -180  83  11  724
1477477489.903:   -191  83  11  724
1477477489.903:   -203  83  11  724
1477477489.904:   -225  83  11  724
1477477489.905:   -256  83  11  724
1477477489.905:   -287  83  11  724
1477477489.906:   -315  83  11  724
1477477489.908:   -339  83  11  724
1477477489.909:   -362  83  11  724
1477477489.910:   -385  83  11  724
1477477489.911:   -406  83  11  724
1477477489.912:   -426  83  11  724
1477477489.912:   -444  83  11  724
1477477489.912:   -460  83  11  724
1477477489.918:   -478  83  11  724
1477477489.918:   -505  83  11  724
1477477489.918:   -545  83  11  724
1477477489.920:   -595  83  11  724
1477477489.921:   -644  83  11  724
1477477489.937:   -686  83  11  724
1477477489.938:   -725  83  11  724
1477477489.938:   -769  83  11  724
1477477489.938:   -816  83  11  724
1477477489.939:   -859  83  11  724
1477477489.939:   -887  83  11  724
1477477489.940:   -904  83  11  724
1477477489.940:   -921  83  11  724
1477477489.940:   -949  83  11  724
1477477489.941:   -980  83  11  724
1477477489.941:  -1003  83  11  724
1477477489.942:  -1013  83  11  724
1477477489.943:  -1015  83  11  724
1477477489.944:  -1018  83  11  724
1477477489.944:  -1024  83  11  724
1477477489.944:  -1035  83  11  724
1477477489.949:  -1054  84  11  719
1477477489.949:  -1077  84  11  719
1477477489.955:  -1097  84  11  719
1477477489.956:  -1100  84  11  719
1477477489.959:  -1083  84  11  719
1477477489.959:  -1057  84  11  719
1477477489.961:  -1041  84  11  719
1477477489.962:  -1040  84  11  719
1477477489.973:  -1044  84  11  719
1477477489.975:  -1034  84  11  719
1477477489.975:  -1005  84  11  719
1477477489.975:   -963  84  11  719
1477477489.976:   -923  84  11  719
1477477489.976:   -893  84  11  719
1477477489.976:   -869  84  11  719
1477477489.976:   -834  84  11  719
1477477489.979:   -776  84  11  719
1477477489.979:   -696  84  11  719
1477477489.984:   -610  84  11  719
1477477489.985:   -540  84  11  719
1477477489.990:   -494  84  11  719
1477477489.990:   -458  84  11  719
1477477489.991:   -403  84  11  719
1477477489.991:   -321  84  11  719
1477477489.993:   -235  84  11  719
1477477490.000:   -178  84  11  719
1477477490.008:   -163  84  11  719
1477477490.008:   -164  84  11  719
1477477490.008:   -139  84  11  719
1477477490.009:    -80  84  11  719
1477477490.009:    -16  84  11  719
1477477490.009:     17  84  11  719
1477477490.009:     22  84  11  719
1477477490.011:     40  84  11  719
1477477490.012:    101  84  11  719
1477477490.014:    189  84  11  719
1477477490.025:    261  84  11  719
1477477490.025:    297  84  11  719
1477477490.025:    318  84  11  719
1477477490.025:    351  84  11  719
1477477490.026:    386  84  11  719
1477477490.028:    397  84  11  719
1477477490.029:    372  84  11  719
1477477490.063:    333  84  11  719
1477477490.063:    310  84  11  719
1477477490.064:    304  84  11  719
1477477490.064:    296  84  11  719
1477477490.064:    281  84  11  719
1477477490.065:    281  84  11  719
1477477490.065:    316  84  11  719
1477477490.065:    373  84  11  719
1477477490.067:    415  84  11  719
1477477490.068:    419  84  11  719
1477477490.072:    404  84  11  719
1477477490.079:    408  84  11  719
1477477490.079:    441  84  11  719
1477477490.079:    476  84  11  719
1477477490.080:    475  84  11  719
1477477490.080:    427  84  11  719
1477477490.080:    362  84  11  719
1477477490.080:    331  84  11  719
1477477490.080:    364  84  11  719
1477477490.080:    434  84  11  719
1477477490.080:    477  84  11  719
1477477490.081:    450  84  11  719
1477477490.081:    381  84  11  719
1477477490.081:    342  84  11  719
1477477490.082:    375  84  11  719
1477477490.084:    440  84  11  719
1477477490.084:    457  84  11  719
1477477490.087:    404  84  11  719
1477477490.087:    346  84  11  719
1477477490.088:    359  84  11  719
1477477490.089:    430  84  11  719
1477477490.091:    461  84  11  719
1477477490.092:    395  84  11  719
1477477490.095:    289  84  11  719
1477477490.098:    254  84  11  719
1477477490.113:    326  84  11  719
1477477490.114:    416  84  11  719
1477477490.115:    409  84  11  719
1477477490.116:    296  84  11  719
1477477490.116:    185  84  11  719
1477477490.118:    189  84  11  719
1477477490.119:    297  84  11  719
1477477490.120:    392  84  11  719
1477477490.121:    386  84  11  719
1477477490.122:    306  84  11  719
1477477490.137:    259  84  11  719
1477477490.137:    304  84  11  719
1477477490.138:    376  84  11  719
1477477490.138:    379  84  11  719
1477477490.138:    296  84  11  719
1477477490.138:    212  84  11  719
1477477490.139:    199  84  11  719
1477477490.139:    240  84  11  719
1477477490.140:    254  84  11  719
1477477490.140:    206  84  11  719
1477477490.140:    148  84  11  719
1477477490.140:    150  84  11  719
1477477490.142:    209  84  11  719
1477477490.143:    262  84  11  719
1477477490.147:    259  84  11  719
1477477490.148:    221  84  11  719
1477477490.150:    197  84  11  719
1477477490.152:    211  84  11  719
1477477490.173:    235  84  11  719
1477477490.173:    235  84  11  719
1477477490.173:    210  84  11  719
1477477490.173:    192  84  11  719
1477477490.174:    199  84  11  719
1477477490.174:    207  84  11  719
1477477490.174:    182  84  11  719
1477477490.175:    131  84  11  719
1477477490.175:     94  84  11  719
1477477490.175:    109  84  11  719
1477477490.175:    157  84  11  719
1477477490.176:    190  84  11  719
1477477490.180:    192  84  11  719
1477477490.180:    191  84  11  719
1477477490.185:    219  84  11  719
1477477490.186:    257  84  11  719
1477477490.194:    259  84  11  719
1477477490.194:    218  84  11  719
1477477490.195:    180  84  11  719
1477477490.196:    187  84  11  719
1477477490.196:    215  84  11  719
1477477490.197:    207  84  11  719
1477477490.200:    149  84  11  719
1477477490.201:     91  84  11  719
1477477490.211:     88  84  11  719
1477477490.212:    137  84  11  719
1477477490.215:    184  84  11  719
1477477490.216:    194  84  11  719
1477477490.217:    171  84  11  719
1477477490.217:    144  84  11  719
1477477490.218:    138  84  11  719
1477477490.219:    167  84  11  719
1477477490.220:    234  84  11  719
1477477490.221:    303  84  11  719
1477477490.222:    328  84  11  719
1477477490.224:    295  84  11  719
1477477490.236:    241  84  11  719
1477477490.236:    218  84  11  719
1477477490.237:    231  84  11  719
1477477490.237:    237  84  11  719
1477477490.237:    209  84  11  719
1477477490.237:    175  84  11  719
1477477490.237:    177  84  11  719
1477477490.246:    206  84  11  719
1477477490.306:    210  84  11  719
1477477490.306:    176  84  11  719
1477477490.308:    155  84  11  719
1477477490.308:    206  84  11  719
1477477490.309:    302  84  11  719
1477477490.312:    343  84  11  719
1477477490.312:    275  84  11  719
1477477490.313:    161  84  11  719
1477477490.314:    114  84  11  719
1477477490.314:    172  84  11  719
1477477490.327:    255  84  11  719
1477477490.328:    263  84  11  719
1477477490.328:    182  84  11  719
1477477490.328:     99  84  11  719
1477477490.328:     98  84  11  719
1477477490.328:    168  84  11  719
1477477490.328:    231  84  11  719
1477477490.329:    228  84  11  719
1477477490.329:    178  84  11  719
1477477490.329:    144  84  11  719
1477477490.329:    158  84  11  719
1477477490.329:    195  84  11  719
1477477490.329:    199  84  11  719
1477477490.329:    158  84  11  719
1477477490.330:    118  84  11  719
1477477490.330:    125  84  11  719
1477477490.330:    169  84  11  719
1477477490.330:    190  84  11  719
1477477490.330:    146  84  11  719
1477477490.330:     73  84  11  719
1477477490.330:     32  84  11  719
1477477490.330:     46  84  11  719
1477477490.331:     78  84  11  719
1477477490.331:     84  84  11  719
1477477490.331:     64  84  11  719
1477477490.331:     51  84  11  719
1477477490.332:     55  84  11  719
1477477490.332:     53  84  11  719
1477477490.332:     36  84  11  719
1477477490.332:     20  84  11  719
1477477490.333:     21  84  11  719
1477477490.333:     31  84  11  719
1477477490.333:     31  84  11  719
1477477490.333:     28  84  11  719
1477477490.333:     49  84  11  719
1477477490.333:     87  84  11  719
1477477490.334:     97  84  11  719
1477477490.334:     57  84  11  719
1477477490.335:      4  84  11  719
1477477490.335:     -4  84  11  719
1477477490.342:     25  84  11  719
1477477490.342:     21  84  11  719
1477477490.345:    -55  84  11  719
1477477490.345:   -142  84  11  719
1477477490.355:   -153  84  11  719
1477477490.355:    -77  84  11  719
1477477490.355:      1  84  11  719
1477477490.355:     13  84  11  719
1477477490.355:     -8  84  11  719
1477477490.362:     21  84  11  719
1477477490.362:    123  84  11  719
1477477490.364:    230  84  11  719
1477477490.364:    274  84  11  719
1477477490.364:    263  84  11  719
1477477490.367:    249  84  11  719
1477477490.368:    258  84  11  719
1477477490.378:    260  84  11  719
1477477490.378:    236  84  11  719
1477477490.378:    205  84  11  719
1477477490.385:    205  84  11  719
1477477490.386:    236  84  11  719
1477477490.387:    269  84  11  719
1477477490.391:    282  84  11  719
1477477490.393:    288  84  11  719
1477477490.402:    302  84  11  719
1477477490.402:    308  84  11  719
1477477490.402:    282  84  11  719
1477477490.402:    230  84  11  719
1477477490.402:    185  84  11  719
1477477490.402:    161  84  11  719
1477477490.402:    137  84  11  719
1477477490.403:     84  84  11  719
1477477490.403:      4  84  11  719
1477477490.405:    -93  84  11  719
1477477490.409:   -212  84  11  719
1477477490.409:   -384  84  11  719
1477477490.409:   -636  84  11  719
1477477490.413:   -959  84  11  719
1477477490.425:  -1323  84  11  719
1477477490.425:  -1712  84  11  719
1477477490.426:  -2129  84  11  719
1477477490.426:  -2558  84  11  719
1477477490.426:  -2946  84  11  719
1477477490.426:  -3217  84  11  719
1477477490.428:  -3318  84  11  719
1477477490.429:  -3230  84  11  719
1477477490.431:  -2941  84  11  719
1477477490.432:  -2431  84  11  719
1477477490.433:  -1685  84  11  719
1477477490.435:   -757  84  11  719
1477477490.452:    217  84  11  719
1477477490.453:   1081  84  11  719
1477477490.453:   1745  84  11  719
1477477490.453:   2219  84  11  719
1477477490.453:   2550  84  11  719
1477477490.454:   2740  84  11  719
1477477490.454:   2736  84  11  719
1477477490.454:   2508  84  11  719
1477477490.457:   2120  84  11  719
1477477490.458:   1707  84  11  719
1477477490.459:   1382  84  11  719
1477477490.484:   1167  84  11  719
1477477490.486:   1025  84  11  719
1477477490.487:    920  84  11  719
1477477490.493:    850  84  11  719
1477477490.494:    821  84  11  719
1477477490.495:    821  84  11  719
1477477490.495:    822  84  11  719
1477477490.496:    802  84  11  719
1477477490.497:    766  84  11  719
1477477490.513:    723  84  11  719
1477477490.517:    678  84  11  719
1477477490.518:    628  84  11  719
1477477490.520:    582  84  11  719
1477477490.520:    548  84  11  719
1477477490.521:    532  84  11  719
1477477490.531:    536  84  11  719
1477477490.532:    553  84  11  719
1477477490.532:    572  84  11  719
1477477490.532:    576  84  11  719
1477477490.532:    552  84  11  719
1477477490.532:    499  84  11  719
1477477490.532:    440  84  11  719
1477477490.533:    402  84  11  719
1477477490.533:    393  84  11  719
1477477490.533:    400  84  11  719
1477477490.533:    407  84  11  719
1477477490.533:    410  84  11  719
1477477490.533:    417  84  11  719
1477477490.534:    433  84  11  719
1477477490.534:    450  84  11  719
1477477490.534:    458  84  11  719
1477477490.534:    455  84  11  719
1477477490.534:    450  84  11  719
1477477490.535:    450  84  11  719
1477477490.535:    453  84  11  719
1477477490.535:    450  84  11  719
1477477490.535:    436  84  11  719
1477477490.535:    410  84  11  719
1477477490.535:    380  84  11  719
1477477490.539:    348  84  11  719
1477477490.542:    319  84  11  719
1477477490.546:    296  84  11  719
1477477490.547:    288  84  11  719
1477477490.550:    294  84  11  719
1477477490.551:    306  84  11  719
1477477490.551:    316  84  11  719
1477477490.553:    315  84  11  719
1477477490.554:    307  84  11  719
1477477490.554:    302  84  11  719
1477477490.554:    299  84  11  719
1477477490.559:    293  84  11  719
1477477490.576:    281  84  11  719
1477477490.577:    264  84  11  719
1477477490.579:    250  84  11  719
1477477490.579:    240  84  11  719
1477477490.581:    229  84  11  719
1477477490.581:    209  84  11  719
1477477490.583:    181  84  11  719
1477477490.584:    158  84  11  719
1477477490.596:    147  84  11  719
1477477490.597:    143  84  11  719
1477477490.597:    130  84  11  719
1477477490.598:    103  84  11  719
1477477490.599:     72  84  11  719
1477477490.605:     52  84  11  719
1477477490.605:     46  84  11  719
1477477490.605:     42  84  11  719
1477477490.611:     26  84  11  719
1477477490.612:     -4  84  11  719
1477477490.612:    -33  84  11  719
1477477490.612:    -50  84  11  719
1477477490.612:    -55  84  11  719
1477477490.613:    -63  84  11  719
1477477490.613:    -84  84  11  719
1477477490.613:   -119  84  11  719
1477477490.613:   -159  84  11  719
1477477490.613:   -197  84  11  719
1477477490.614:   -232  84  11  719
1477477490.614:   -268  84  11  719
1477477490.614:   -305  84  11  719
1477477490.616:   -342  84  11  719
1477477490.620:   -380  84  11  719
1477477490.620:   -420  84  11  719
1477477490.622:   -459  84  11  719
1477477490.624:   -493  84  11  719
1477477490.625:   -527  84  11  719
1477477490.627:   -564  84  11  719
1477477490.630:   -608  84  11  719
1477477490.634:   -648  84  11  719
1477477490.655:   -676  84  11  719
1477477490.656:   -691  84  11  715
1477477490.659:   -706  84  11  715
1477477490.660:   -731  84  11  715
1477477490.662:   -763  84  11  715
1477477490.663:   -788  84  11  715
1477477490.675:   -802  84  11  715
1477477490.675:   -812  84  11  715
1477477490.675:   -827  84  11  715
1477477490.676:   -850  84  11  715
1477477490.676:   -871  84  11  715
1477477490.676:   -881  84  11  715
1477477490.677:   -883  84  11  715
1477477490.677:   -881  84  11  715
1477477490.677:   -877  84  11  715
1477477490.678:   -867  84  11  715
1477477490.678:   -856  84  11  715
1477477490.678:   -854  84  11  715
1477477490.678:   -860  84  11  715
1477477490.678:   -865  84  11  715
1477477490.679:   -854  84  11  715
1477477490.679:   -821  84  11  715
1477477490.679:   -779  84  11  715
1477477490.680:   -741  84  11  715
1477477490.680:   -709  84  11  715
1477477490.682:   -675  84  11  715
1477477490.684:   -631  84  11  715
1477477490.689:   -577  84  11  715
1477477490.708:   -516  84  11  715
1477477490.708:   -452  84  11  715
1477477490.709:   -389  84  11  715
1477477490.709:   -328  84  11  715
1477477490.709:   -272  84  11  715
1477477490.709:   -218  84  11  715
1477477490.709:   -166  84  11  715
1477477490.709:   -114  84  11  715
1477477490.709:    -65  84  11  715
1477477490.710:    -22  84  11  715
1477477490.711:     19  84  11  715
1477477490.711:     58  84  11  715
1477477490.711:     95  84  11  715
1477477490.716:    134  84  11  715
1477477490.716:    176  84  11  715
1477477490.718:    223  84  11  715
1477477490.721:    274  84  11  715
1477477490.721:    323  84  11  715
1477477490.723:    362  84  11  715
1477477490.726:    389  84  11  715
1477477490.727:    409  84  11  715
1477477490.730:    427  84  11  715
1477477490.747:    449  84  11  715
1477477490.748:    474  84  11  715
1477477490.748:    497  84  11  715
1477477490.748:    514  84  11  715
1477477490.749:    526  84  11  715
1477477490.749:    536  84  11  715
1477477490.749:    544  84  11  715
1477477490.749:    547  84  11  715
1477477490.750:    545  84  11  715
1477477490.754:    543  84  11  715
1477477490.755:    542  84  11  715
1477477490.755:    541  84  11  715
1477477490.758:    537  84  11  715
1477477490.758:    530  84  11  715
1477477490.759:    528  84  11  715
1477477490.761:    533  84  11  715
1477477490.771:    537  84  11  715
1477477490.772:    533  84  11  715
1477477490.776:    523  84  11  715
1477477490.776:    520  84  11  715
1477477490.776:    525  84  11  715
1477477490.776:    528  84  11  715
1477477490.778:    520  84  11  715
1477477490.782:    507  84  11  715
1477477490.783:    505  84  11  715
1477477490.788:    519  84  11  715
1477477490.794:    534  84  11  715
1477477490.794:    531  84  11  715
1477477490.796:    511  84  11  715
1477477490.797:    491  84  11  715
1477477490.799:    482  84  11  715
1477477490.802:    481  84  11  715
1477477490.812:    475  84  11  715
1477477490.813:    461  84  11  715
1477477490.813:    449  84  11  715
1477477490.813:    447  84  11  715
1477477490.813:    452  84  11  715
1477477490.814:    454  84  11  715
1477477490.815:    447  84  11  715
1477477490.817:    434  84  11  715
1477477490.817:    422  84  11  715
1477477490.819:    414  84  11  715
1477477490.819:    411  84  11  715
1477477490.822:    408  84  11  715
1477477490.833:    404  84  11  715
1477477490.834:    399  84  11  715
1477477490.834:    394  84  11  715
1477477490.835:    391  84  11  715
1477477490.835:    386  84  11  715
1477477490.835:    377  84  11  715
1477477490.835:    362  84  11  715
1477477490.836:    344  84  11  715
1477477490.836:    329  84  11  715
1477477490.838:    319  84  11  715
1477477490.841:    308  84  11  715
1477477490.842:    297  84  11  715
1477477490.851:    284  84  11  715
1477477490.852:    274  84  11  715
1477477490.852:    265  84  11  715
1477477490.852:    256  84  11  715
1477477490.853:    244  84  11  715
1477477490.853:    227  84  11  715
1477477490.854:    209  84  11  715
1477477490.856:    190  84  11  715
1477477490.857:    175  84  11  715
1477477490.858:    168  84  11  715
1477477490.863:    169  84  11  715
1477477490.863:    169  84  11  715
1477477490.867:    157  84  11  715
1477477490.868:    135  84  11  715
1477477490.869:    116  84  11  715
1477477490.872:    113  84  11  715
1477477490.874:    126  84  11  715
1477477490.875:    138  84  11  715
1477477490.877:    134  84  11  715
1477477490.878:    115  84  11  715
1477477490.898:     96  84  11  715
1477477490.899:     88  84  11  715
1477477490.900:     89  84  11  715
1477477490.900:     88  84  11  715
1477477490.900:     78  84  11  715
1477477490.901:     64  84  11  715
1477477490.901:     53  84  11  715
1477477490.901:     53  84  11  715
1477477490.901:     61  84  11  715
1477477490.901:     70  84  11  715
1477477490.901:     75  84  11  715
1477477490.905:     74  84  11  715
1477477490.906:     69  84  11  715
1477477490.906:     64  84  11  715
1477477490.908:     61  84  11  715
1477477490.909:     58  84  11  715
1477477490.914:     53  84  11  715
1477477490.914:     49  84  11  715
1477477490.920:     51  84  11  715
1477477490.921:     61  84  11  715
1477477490.941:     75  84  11  715
1477477490.941:     84  84  11  715
1477477490.941:     83  84  11  715
1477477490.941:     76  84  11  715
1477477490.941:     69  84  11  715
1477477490.942:     67  84  11  715
1477477490.942:     71  84  11  715
1477477490.942:     80  84  11  715
1477477490.942:     90  84  11  715
1477477490.942:     96  84  11  715
1477477490.942:    100  84  11  715
1477477490.943:    102  84  11  715
1477477490.943:    103  84  11  715
1477477490.945:    105  84  11  715
1477477490.946:    108  84  11  715
1477477490.949:    108  84  11  715
1477477490.950:    105  84  11  715
1477477490.955:    103  84  11  715
1477477490.966:    103  84  11  715
1477477491.033:    106  84  11  715
1477477491.034:    112  84  11  715
1477477491.034:    120  84  11  715
1477477491.034:    126  84  11  715
1477477491.034:    125  84  11  715
1477477491.034:    118  84  11  715
1477477491.035:    112  84  11  715
1477477491.035:    111  84  11  715
1477477491.035:    114  84  11  715
1477477491.035:    116  84  11  715
1477477491.035:    115  84  11  715
1477477491.035:    118  84  11  715
1477477491.035:    129  84  11  715
1477477491.036:    142  84  11  715
1477477491.036:    142  84  11  715
1477477491.036:    122  84  11  715
1477477491.036:     96  84  11  715
1477477491.037:     83  84  11  715
1477477491.037:     87  84  11  715
1477477491.037:     95  84  11  715
1477477491.037:     90  84  11  715
1477477491.037:     75  84  11  715
1477477491.037:     68  84  11  715
1477477491.037:     77  84  11  715
1477477491.038:     89  84  11  715
1477477491.039:     87  84  11  715
1477477491.039:     69  84  11  715
1477477491.039:     49  84  11  715
1477477491.039:     36  84  11  715
1477477491.039:     25  84  11  715
1477477491.039:      7  84  11  715
1477477491.040:    -14  84  11  715
1477477491.040:    -23  84  11  715
1477477491.040:    -12  84  11  715
1477477491.040:     11  84  11  715
1477477491.040:     32  84  11  715
1477477491.040:     45  84  11  715
1477477491.041:     54  84  11  715
1477477491.041:     63  84  11  715
1477477491.041:     69  84  11  715
1477477491.069:     67  84  11  715
1477477491.071:     58  84  11  715
1477477491.071:     45  84  11  715
1477477491.071:     30  84  11  715
1477477491.071:     14  84  11  715
1477477491.073:     -5  84  11  715
1477477491.073:    -25  84  11  715
1477477491.074:    -41  84  11  715
1477477491.074:    -52  84  11  715
1477477491.078:    -54  84  11  715
1477477491.079:    -48  84  11  715
1477477491.090:    -43  84  11  715
1477477491.090:    -48  84  11  715
1477477491.091:    -67  84  11  715
1477477491.091:    -94  84  11  715
1477477491.091:   -110  84  11  715
1477477491.091:   -104  84  11  715
1477477491.091:    -80  84  11  715
1477477491.091:    -50  84  11  715
1477477491.091:    -24  84  11  715
1477477491.091:      3  84  11  715
1477477491.092:     43  84  11  715
1477477491.092:     97  84  11  715
1477477491.092:    153  84  11  715
1477477491.092:    192  84  11  715
1477477491.092:    209  84  11  715
1477477491.093:    210  84  11  715
1477477491.093:    206  84  11  715
1477477491.093:    204  84  11  715
1477477491.093:    201  84  11  715
1477477491.094:    199  84  11  715
1477477491.096:    201  84  11  715
1477477491.098:    208  84  11  715
1477477491.101:    219  84  11  715
1477477491.102:    221  84  11  715
1477477491.107:    206  84  11  715
1477477491.107:    176  84  11  715
1477477491.134:    144  84  11  715
1477477491.134:    117  84  11  715
1477477491.135:     94  84  11  715
1477477491.135:     67  84  11  715
1477477491.136:     28  84  11  715
1477477491.136:    -20  84  11  715
1477477491.137:    -69  84  11  715
1477477491.137:   -134  84  11  715
1477477491.137:   -252  84  11  715
1477477491.138:   -454  84  11  715
1477477491.138:   -732  84  11  715
1477477491.139:  -1049  84  11  715
1477477491.139:  -1376  84  11  715
1477477491.139:  -1725  84  11  715
1477477491.140:  -2125  84  11  715
1477477491.140:  -2566  84  11  715
1477477491.141:  -2984  84  11  715
1477477491.144:  -3310  84  11  715
1477477491.144:  -3507  84  11  715
1477477491.147:  -3555  84  11  715
1477477491.160:  -3417  84  11  715
1477477491.160:  -3040  84  11  715
1477477491.160:  -2400  84  11  715
1477477491.160:  -1557  84  11  715
1477477491.160:   -630  84  11  715
1477477491.161:    266  84  11  715
1477477491.161:   1058  84  11  715
1477477491.163:   1704  84  11  715
1477477491.166:   2166  84  11  715
1477477491.167:   2416  84  11  715
1477477491.168:   2448  84  11  715
1477477491.169:   2284  84  11  715
1477477491.170:   1965  84  11  715
1477477491.175:   1551  84  11  715
1477477491.175:   1126  84  11  715
1477477491.176:    785  84  11  715
1477477491.178:    585  84  11  715
1477477491.181:    514  84  11  715
1477477491.202:    510  84  11  715
1477477491.202:    518  84  11  715
1477477491.202:    531  84  11  715
1477477491.202:    568  84  11  715
1477477491.203:    633  84  11  715
1477477491.203:    686  84  11  715
1477477491.203:    685  84  11  715
1477477491.203:    619  84  11  715
1477477491.203:    516  84  11  715
1477477491.203:    422  84  11  715
1477477491.203:    358  84  11  715
1477477491.204:    323  84  11  715
1477477491.208:    310  84  11  715
1477477491.209:    319  84  11  715
1477477491.210:    348  84  11  715
1477477491.212:    375  84  11  715
1477477491.214:    371  84  11  715
1477477491.215:    323  84  11  715
1477477491.226:    253  84  11  715
1477477491.226:    196  84  11  715
1477477491.226:    170  84  11  715
1477477491.227:    167  84  11  715
1477477491.230:    173  84  11  715
1477477491.230:    186  84  11  715
1477477491.230:    207  84  11  715
1477477491.231:    230  84  11  715
1477477491.234:    240  84  11  715
1477477491.235:    227  84  11  715
1477477491.236:    201  84  11  715
1477477491.243:    186  84  11  715
1477477491.252:    194  84  11  715
1477477491.253:    209  84  11  715
1477477491.253:    212  84  11  715
1477477491.253:    195  84  11  715
1477477491.253:    170  84  11  715
1477477491.253:    148  84  11  715
1477477491.254:    133  84  11  715
1477477491.257:    113  84  11  715
1477477491.257:     86  84  11  715
1477477491.261:     61  84  11  715
1477477491.261:     49  84  11  715
1477477491.263:     50  84  11  715
1477477491.264:     52  84  11  715
1477477491.267:     45  84  11  715
1477477491.271:     35  84  11  715
1477477491.271:     33  84  11  715
1477477491.274:     41  84  11  715
1477477491.277:     48  84  11  715
1477477491.278:     46  84  11  715
1477477491.279:     39  84  11  715
1477477491.284:     39  84  11  715
1477477491.285:     45  84  11  715
1477477491.285:     46  84  11  715
1477477491.286:     34  84  11  715
1477477491.304:     14  84  11  715
1477477491.305:      0  84  11  715
1477477491.305:     -7  84  11  715
1477477491.306:    -13  84  11  715
1477477491.307:    -30  84  11  715
1477477491.307:    -53  84  11  715
1477477491.310:    -72  84  11  715
1477477491.310:    -85  84  11  715
1477477491.310:   -100  84  11  715
1477477491.310:   -121  84  11  715
1477477491.312:   -145  84  11  715
1477477491.312:   -166  84  11  715
1477477491.313:   -185  84  11  715
1477477491.315:   -203  84  11  715
1477477491.317:   -219  84  11  715
1477477491.318:   -231  84  11  715
1477477491.334:   -238  84  11  715
1477477491.335:   -255  84  11  715
1477477491.335:   -291  84  11  715
1477477491.335:   -338  84  11  715
1477477491.337:   -379  84  11  715
1477477491.337:   -404  84  11  715
1477477491.337:   -423  84  11  715
1477477491.338:   -455  84  11  715
1477477491.339:   -501  84  11  715
1477477491.339:   -549  84  11  715
1477477491.340:   -585  84  11  715
1477477491.346:   -610  84  11  715
1477477491.346:   -639  84  11  715
1477477491.347:   -681  84  11  710
1477477491.347:   -730  84  11  710
1477477491.353:   -776  84  11  710
1477477491.354:   -809  84  11  710
1477477491.354:   -832  84  11  710
1477477491.355:   -850  84  11  710
1477477491.360:   -869  84  11  710
1477477491.376:   -889  84  11  710
1477477491.376:   -910  84  11  710
1477477491.376:   -933  84  11  710
1477477491.377:   -955  84  11  710
1477477491.377:   -973  84  11  710
1477477491.377:   -987  84  11  710
1477477491.378:  -1001  84  11  710
1477477491.378:  -1019  84  11  710
1477477491.378:  -1036  84  11  710
1477477491.380:  -1042  84  11  710
1477477491.380:  -1032  84  11  710
1477477491.384:  -1015  84  11  710
1477477491.384:  -1003  84  11  710
1477477491.385:   -999  84  11  710
1477477491.387:   -992  84  11  710
1477477491.388:   -975  84  11  710
1477477491.394:   -950  84  11  710
1477477491.394:   -924  84  11  710
1477477491.406:   -895  84  11  710
1477477491.406:   -855  84  11  710
1477477491.406:   -803  84  11  710
1477477491.407:   -750  84  11  710
1477477491.407:   -698  84  11  710
1477477491.408:   -642  84  11  710
1477477491.408:   -573  84  11  710
1477477491.409:   -496  84  11  710
1477477491.411:   -428  84  11  710
1477477491.413:   -373  84  11  710
1477477491.414:   -318  84  11  710
1477477491.415:   -253  84  11  710
1477477491.421:   -184  84  11  710
1477477491.421:   -125  84  11  710
1477477491.423:    -77  84  11  710
1477477491.424:    -28  84  11  710
1477477491.427:     31  84  11  710
1477477491.428:     93  84  11  710
1477477491.446:    147  84  11  710
1477477491.447:    197  84  11  710
1477477491.447:    255  84  11  710
1477477491.447:    322  84  11  710
1477477491.448:    381  84  11  710
1477477491.449:    419  84  11  710
1477477491.452:    444  84  11  710
1477477491.452:    467  84  11  710
1477477491.452:    492  84  11  710
1477477491.453:    509  84  11  710
1477477491.453:    514  84  11  710
1477477491.454:    519  84  11  710
1477477491.454:    533  84  11  710
1477477491.455:    552  84  11  710
1477477491.457:    565  84  11  710
1477477491.465:    573  84  11  710
1477477491.466:    584  84  11  710
1477477491.467:    601  84  11  710
1477477491.467:    612  84  11  710
1477477491.468:    607  84  11  710
1477477491.470:    594  84  11  710
1477477491.472:    591  84  11  710
1477477491.491:    605  84  11  710
1477477491.491:    616  84  11  710
1477477491.492:    606  84  11  710
1477477491.492:    579  84  11  710
1477477491.492:    558  84  11  710
1477477491.492:    559  84  11  710
1477477491.493:    572  84  11  710
1477477491.493:    575  84  11  710
1477477491.493:    560  84  11  710
1477477491.493:    542  84  11  710
1477477491.493:    538  84  11  710
1477477491.494:    545  84  11  710
1477477491.500:    550  84  11  710
1477477491.500:    547  84  11  710
1477477491.512:    538  84  11  710
1477477491.512:    530  84  11  710
1477477491.512:    522  84  11  710
1477477491.512:    512  84  11  710
1477477491.513:    499  84  11  710
1477477491.514:    491  84  11  710
1477477491.514:    490  84  11  710
1477477491.516:    489  84  11  710
1477477491.517:    480  84  11  710
1477477491.518:    467  84  11  710
1477477491.524:    461  84  11  710
1477477491.525:    467  84  11  710
1477477491.529:    479  84  11  710
1477477491.530:    487  84  11  710
1477477491.536:    489  84  11  710
1477477491.536:    490  84  11  710
1477477491.537:    497  84  11  710
1477477491.537:    508  84  11  710
1477477491.537:    515  84  11  710
1477477491.540:    513  84  11  710
1477477491.543:    503  84  11  710
1477477491.547:    491  84  11  710
1477477491.547:    475  84  11  710
1477477491.547:    454  84  11  710
1477477491.549:    430  84  11  710
1477477491.550:    408  84  11  710
1477477491.555:    395  84  11  710
1477477491.556:    391  84  11  710
1477477491.581:    391  84  11  710
1477477491.581:    390  84  11  710
1477477491.581:    392  84  11  710
1477477491.581:    399  84  11  710
1477477491.582:    408  84  11  710
1477477491.582:    416  84  11  710
1477477491.582:    415  84  11  710
1477477491.582:    407  84  11  710
1477477491.583:    396  84  11  710
1477477491.583:    388  84  11  710
1477477491.583:    384  84  11  710
1477477491.584:    382  84  11  710
1477477491.584:    379  84  11  710
1477477491.584:    371  84  11  710
1477477491.588:    356  84  11  710
1477477491.588:    344  84  11  710
1477477491.589:    340  84  11  710
1477477491.589:    342  84  11  710
1477477491.591:    339  84  11  710
1477477491.594:    329  84  11  710
1477477491.596:    319  84  11  710
1477477491.600:    319  84  11  710
1477477491.615:    326  84  11  710
1477477491.615:    326  84  11  710
1477477491.617:    311  84  11  710
1477477491.617:    288  84  11  710
1477477491.617:    275  84  11  710
1477477491.617:    271  84  11  710
1477477491.617:    267  84  11  710
1477477491.618:    255  84  11  710
1477477491.618:    246  84  11  710
1477477491.619:    253  84  11  710
1477477491.619:    273  84  11  710
1477477491.621:    284  84  11  710
1477477491.623:    277  84  11  710
1477477491.628:    262  84  11  710
1477477491.635:    257  84  11  710
1477477491.636:    263  84  11  710
1477477491.636:    264  84  11  710
1477477491.636:    251  84  11  710
1477477491.636:    231  84  11  710
1477477491.637:    224  84  11  710
1477477491.643:    234  84  11  710
1477477491.644:    248  84  11  710
1477477491.644:    250  84  11  710
1477477491.645:    237  84  11  710
1477477491.645:    222  84  11  710
1477477491.648:    216  84  11  710
1477477491.704:    219  84  11  710
1477477491.704:    221  84  11  710
1477477491.705:    219  84  11  710
1477477491.705:    213  84  11  710
1477477491.705:    210  84  11  710
1477477491.705:    212  84  11  710
1477477491.705:    217  84  11  710
1477477491.706:    219  84  11  710
1477477491.706:    218  84  11  710
1477477491.706:    213  84  11  710
1477477491.706:    207  84  11  710
1477477491.707:    199  84  11  710
1477477491.707:    192  84  11  710
1477477491.709:    189  84  11  710
1477477491.710:    195  84  11  710
1477477491.710:    208  84  11  710
1477477491.714:    217  84  11  710
1477477491.714:    217  84  11  710
1477477491.714:    211  84  11  710
1477477491.715:    209  84  11  710
1477477491.715:    216  84  11  710
1477477491.715:    224  84  11  710
1477477491.716:    224  84  11  710
1477477491.716:    217  84  11  710
1477477491.716:    211  84  11  710
1477477491.716:    211  84  11  710
1477477491.716:    213  84  11  710
1477477491.717:    208  84  11  710
1477477491.718:    201  84  11  710
1477477491.718:    201  84  11  710
1477477491.719:    208  84  11  710
1477477491.719:    216  84  11  710
1477477491.719:    219  84  11  710
1477477491.719:    219  84  11  710
1477477491.720:    221  84  11  710
1477477491.723:    225  84  11  710
1477477491.723:    229  84  11  710
1477477491.726:    231  84  11  710
1477477491.727:    233  84  11  710
1477477491.729:    232  84  11  710
1477477491.729:    219  84  11  710
1477477491.731:    192  84  11  710
1477477491.733:    165  84  11  710
1477477491.738:    152  84  11  710
1477477491.758:    154  84  11  710
1477477491.764:    154  84  11  710
1477477491.768:    139  84  11  710
1477477491.770:    114  84  11  710
1477477491.780:     93  84  11  710
1477477491.780:     83  84  11  710
1477477491.780:     81  84  11  710
1477477491.781:     79  84  11  710
1477477491.781:     77  84  11  710
1477477491.781:     78  84  11  710
1477477491.781:     77  84  11  710
1477477491.781:     72  84  11  710
1477477491.781:     65  84  11  710
1477477491.781:     65  84  11  710
1477477491.781:     71  84  11  710
1477477491.782:     72  84  11  710
1477477491.782:     60  84  11  710
1477477491.782:     41  84  11  710
1477477491.782:     31  84  11  710
1477477491.782:     41  84  11  710
1477477491.783:     62  84  11  710
1477477491.785:     82  84  11  710
1477477491.785:     93  84  11  710
1477477491.787:     93  84  11  710
1477477491.788:     82  84  11  710
1477477491.789:     67  84  11  710
1477477491.790:     58  84  11  710
1477477491.792:     62  84  11  710
1477477491.793:     76  84  11  710
1477477491.795:     82  84  11  710
1477477491.796:     68  84  11  710
1477477491.797:     42  84  11  710
1477477491.802:     31  84  11  710
1477477491.803:     45  84  11  710
1477477491.806:     68  84  11  710
1477477491.807:     68  84  11  710
1477477491.812:     28  84  11  710
1477477491.813:    -32  84  11  710
1477477491.814:    -77  84  11  710
1477477491.815:    -88  84  11  710
1477477491.830:    -74  84  11  710
1477477491.831:    -55  84  11  710
1477477491.832:    -39  84  11  710
1477477491.832:    -19  84  11  710
1477477491.832:     14  84  11  710
1477477491.833:     62  84  11  710
1477477491.834:    119  84  11  710
1477477491.834:    173  84  11  710
1477477491.835:    216  84  11  710
1477477491.836:    244  84  11  710
1477477491.839:    258  84  11  710
1477477491.840:    263  84  11  710
1477477491.840:    263  84  11  710
1477477491.844:    255  84  11  710
1477477491.844:    237  84  11  710
1477477491.848:    213  84  11  710
1477477491.859:    198  84  11  710
1477477491.859:    198  84  11  710
1477477491.859:    209  84  11  710
1477477491.860:    214  84  11  710
1477477491.860:    204  84  11  710
1477477491.860:    189  84  11  710
1477477491.862:    180  84  11  710
1477477491.863:    173  84  11  710
1477477491.863:    150  84  11  710
1477477491.868:     97  84  11  710
1477477491.869:     25  84  11  710
1477477491.870:    -42  84  11  710
1477477491.872:    -98  84  11  710
1477477491.875:   -176  84  11  710
1477477491.888:   -324  84  11  710
1477477491.888:   -561  84  11  710
1477477491.888:   -861  84  11  710
1477477491.889:  -1179  84  11  710
1477477491.904:  -1504  84  11  710
1477477491.905:  -1867  84  11  710
1477477491.920:  -2292  84  11  710
1477477491.920:  -2753  84  11  710
1477477491.920:  -3178  84  11  710
1477477491.920:  -3494  84  11  710
1477477491.920:  -3664  84  11  710
1477477491.920:  -3664  84  11  710
1477477491.921:  -3454  84  11  710
1477477491.921:  -2991  84  11  710
1477477491.921:  -2280  84  11  710
1477477491.921:  -1398  84  11  710
1477477491.921:   -460  84  11  710
1477477491.921:    430  84  11  710
1477477491.921:   1206  84  11  710
1477477491.921:   1823  84  11  710
1477477491.922:   2239  84  11  710
1477477491.925:   2432  84  11  710
1477477491.928:   2406  84  11  710
1477477491.930:   2194  84  11  710
1477477491.930:   1840  84  11  710
1477477491.933:   1408  84  11  710
1477477491.944:    989  84  11  710
1477477491.944:    678  84  11  710
1477477491.944:    516  84  11  710
1477477491.944:    472  84  11  710
1477477491.944:    481  84  11  710
1477477491.945:    501  84  11  710
1477477491.945:    534  84  11  710
1477477491.945:    593  84  11  710
1477477491.945:    658  84  11  710
1477477491.946:    686  84  11  710
1477477491.946:    653  84  11  710
1477477491.950:    578  84  11  710
1477477491.951:    491  84  11  710
1477477491.951:    411  84  11  710
1477477491.953:    346  84  11  710
1477477491.957:    310  84  11  710
1477477491.958:    316  84  11  710
1477477491.959:    362  84  11  710
1477477491.966:    410  84  11  710
1477477491.966:    419  84  11  710
1477477491.967:    376  84  11  710
1477477491.967:    309  84  11  710
1477477491.970:    253  84  11  710
1477477491.972:    218  84  11  710
1477477491.973:    198  84  11  710
1477477491.976:    189  84  11  710
1477477491.989:    197  84  11  710
1477477491.990:    229  84  11  710
1477477491.990:    267  84  11  710
1477477491.990:    284  84  11  710
1477477491.990:    267  84  11  710
1477477491.990:    229  84  11  710
1477477491.990:    193  84  11  710
1477477491.991:    169  84  11  710
1477477491.996:    153  84  11  710
1477477491.997:    141  84  11  710
1477477492.000:    141  84  11  710
1477477492.000:    154  84  11  710
1477477492.000:    168  84  11  710
1477477492.004:    165  84  11  710
1477477492.016:    145  84  11  710
1477477492.016:    126  84  11  710
1477477492.017:    126  84  11  710
1477477492.017:    138  84  11  710
1477477492.018:    145  84  11  710
1477477492.018:    138  84  11  710
1477477492.018:    130  84  11  710
1477477492.018:    131  84  11  710
1477477492.019:    140  84  11  710
1477477492.020:    141  84  11  710
1477477492.023:    131  84  11  710
1477477492.026:    118  84  11  710
1477477492.042:    113  84  11  710
1477477492.042:    112  84  11  710
1477477492.042:    107  84  11  710
1477477492.042:    101  84  11  710
1477477492.042:    101  84  11  710
1477477492.043:    110  84  11  710
1477477492.043:    115  84  11  710
1477477492.052:    107  84  11  710
1477477492.052:     92  84  11  710
1477477492.053:     82  84  11  710
1477477492.053:     79  84  11  710
1477477492.053:     73  84  11  710
1477477492.055:     53  84  11  710
1477477492.056:     23  84  11  710
1477477492.067:      0  84  11  710
1477477492.067:     -8  84  11  710
1477477492.068:    -13  84  11  710
1477477492.068:    -29  84  11  710
1477477492.068:    -60  84  11  710
1477477492.068:    -94  85  11  710
1477477492.069:   -123  85  11  710
1477477492.069:   -150  85  11  710
1477477492.073:   -183  85  11  710
1477477492.073:   -221  85  11  710
1477477492.078:   -250  85  11  710
1477477492.079:   -265  85  11  710
1477477492.079:   -277  85  11  710
1477477492.081:   -304  85  11  710
1477477492.084:   -346  85  11  710
1477477492.086:   -386  85  11  710
1477477492.086:   -409  85  11  710
1477477492.088:   -428  85  11  710
1477477492.089:   -465  85  11  710
1477477492.092:   -523  85  11  710
1477477492.095:   -574  85  11  710
1477477492.099:   -597  85  11  710
1477477492.103:   -600  85  11  710
1477477492.103:   -615  85  11  710
1477477492.103:   -658  85  11  710
1477477492.103:   -710  85  11  710
1477477492.105:   -745  85  11  710
1477477492.108:   -759  85  11  710
1477477492.127:   -776  85  11  710
1477477492.127:   -814  85  11  710
1477477492.127:   -865  85  11  710
1477477492.128:   -903  85  11  710
1477477492.128:   -918  85  11  710
1477477492.128:   -924  85  11  710
1477477492.128:   -938  85  11  710
1477477492.128:   -966  85  11  710
1477477492.129:   -991  85  11  710
1477477492.129:  -1003  85  11  710
1477477492.131:  -1001  85  11  710
1477477492.133:   -991  85  11  710
1477477492.133:   -981  85  11  710
1477477492.135:   -971  85  11  710
1477477492.137:   -958  85  11  710
1477477492.142:   -939  85  11  710
1477477492.152:   -915  85  11  710
1477477492.152:   -887  85  11  710
1477477492.152:   -857  85  11  710
1477477492.152:   -822  85  11  710
1477477492.152:   -781  85  11  710
1477477492.153:   -731  85  11  710
1477477492.155:   -670  85  11  710
1477477492.155:   -601  85  11  710
1477477492.157:   -527  85  11  710
1477477492.161:   -455  85  11  710
1477477492.162:   -389  85  11  710
1477477492.163:   -329  85  11  710
1477477492.178:   -269  85  11  710
1477477492.178:   -205  85  11  710
1477477492.179:   -136  85  11  710
1477477492.179:    -68  85  11  710
1477477492.179:     -4  85  11  710
1477477492.179:     58  85  11  710
1477477492.179:    122  85  11  710
1477477492.179:    191  85  11  710
1477477492.180:    261  85  11  710
1477477492.185:    321  85  11  710
1477477492.186:    369  85  11  710
1477477492.187:    410  85  11  710
1477477492.188:    448  85  11  710
1477477492.189:    486  85  11  710
1477477492.192:    520  85  11  710
1477477492.196:    545  85  11  710
1477477492.205:    560  85  11  710
1477477492.205:    574  85  11  710
1477477492.205:    591  85  11  710
1477477492.205:    613  85  11  710
1477477492.205:    633  85  11  710
1477477492.206:    647  85  11  710
1477477492.208:    656  85  11  710
1477477492.209:    663  85  11  710
1477477492.214:    670  85  11  710
1477477492.214:    676  85  11  710
1477477492.216:    679  85  11  710
1477477492.219:    679  85  11  710
1477477492.219:    678  85  11  710
1477477492.222:    674  85  11  710
1477477492.223:    666  85  11  710
1477477492.227:    655  85  11  710
1477477492.235:    650  85  11  710
1477477492.235:    653  85  11  710
1477477492.236:    659  85  11  710
1477477492.236:    663  85  11  710
1477477492.239:    664  85  11  710
1477477492.239:    669  85  11  710
1477477492.241:    678  85  11  710
1477477492.245:    686  85  11  710
1477477492.254:    684  85  11  710
1477477492.255:    674  85  11  710
1477477492.255:    667  85  11  710
1477477492.256:    669  85  11  710
1477477492.256:    675  85  11  710
1477477492.257:    677  85  11  710
1477477492.262:    669  85  11  710
1477477492.262:    657  85  11  710
1477477492.262:    650  85  11  710
1477477492.267:    650  85  11  710
1477477492.268:    652  85  11  710
1477477492.268:    649  85  11  710
1477477492.269:    635  85  11  710
1477477492.270:    614  85  11  710
1477477492.271:    595  85  11  710
1477477492.272:    588  85  11  710
1477477492.274:    596  85  11  710
1477477492.279:    609  85  11  710
1477477492.293:    614  85  11  710
1477477492.294:    610  85  11  710
1477477492.295:    598  85  11  710
1477477492.296:    586  85  11  710
1477477492.296:    577  85  11  710
1477477492.297:    574  85  11  710
1477477492.297:    577  85  11  710
1477477492.298:    582  85  11  710
1477477492.300:    579  85  11  710
1477477492.300:    564  85  11  710
1477477492.311:    547  85  11  710
1477477492.311:    542  85  11  710
1477477492.312:    549  85  11  710
1477477492.312:    552  85  11  710
1477477492.312:    536  85  11  710
1477477492.313:    507  85  11  710
1477477492.313:    486  85  11  710
1477477492.314:    482  85  11  710
1477477492.314:    487  85  11  710
1477477492.319:    484  85  11  710
1477477492.320:    473  85  11  710
1477477492.322:    462  85  11  710
1477477492.323:    452  85  11  710
1477477492.326:    437  85  11  710
1477477492.328:    418  85  11  710
1477477492.329:    406  85  11  710
1477477492.330:    407  85  11  710
1477477492.332:    409  85  11  710
1477477492.333:    398  85  11  710
1477477492.336:    375  85  11  710
1477477492.337:    361  85  11  710
1477477492.342:    372  85  11  710
1477477492.343:    394  85  11  710
1477477492.348:    401  85  11  710
1477477492.350:    388  85  11  710
1477477492.350:    377  85  11  710
1477477492.367:    393  85  11  710
1477477492.368:    432  85  11  710
1477477492.419:    462  85  11  710
1477477492.419:    458  85  11  710
1477477492.419:    426  85  11  710
1477477492.419:    394  85  11  710
1477477492.419:    379  85  11  710
1477477492.419:    372  85  11  710
1477477492.420:    354  85  11  710
1477477492.420:    318  85  11  710
1477477492.421:    275  85  11  710
1477477492.421:    245  85  11  710
1477477492.421:    236  85  11  710
1477477492.421:    244  85  11  710
1477477492.421:    265  85  11  710
1477477492.421:    295  85  11  710
1477477492.422:    325  85  11  710
1477477492.422:    341  85  11  710
1477477492.422:    332  85  11  710
1477477492.422:    304  85  11  710
1477477492.422:    278  85  11  710
1477477492.422:    272  85  11  710
1477477492.436:    287  85  11  710
1477477492.436:    301  85  11  710
1477477492.437:    289  85  11  710
1477477492.437:    250  85  11  710
1477477492.437:    212  85  11  710
1477477492.437:    208  85  11  710
1477477492.437:    249  85  11  710
1477477492.437:    309  85  11  710
1477477492.437:    339  85  11  710
1477477492.437:    314  85  11  710
1477477492.438:    255  85  11  710
1477477492.438:    215  85  11  710
1477477492.438:    228  85  11  710
1477477492.438:    280  85  11  710
1477477492.438:    323  85  11  710
1477477492.438:    320  85  11  710
1477477492.439:    277  85  11  710
1477477492.439:    236  85  11  710
1477477492.439:    228  85  11  710
1477477492.439:    251  85  11  710
1477477492.439:    269  85  11  710
1477477492.440:    255  85  11  710
1477477492.440:    214  85  11  710
1477477492.440:    180  85  11  710
1477477492.441:    176  85  11  710
1477477492.442:    197  85  11  710
1477477492.443:    218  85  11  710
1477477492.449:    224  85  11  710
1477477492.459:    217  85  11  710
1477477492.460:    209  85  11  710
1477477492.460:    213  85  11  710
1477477492.461:    239  85  11  710
1477477492.461:    279  85  11  710
1477477492.461:    307  85  11  710
1477477492.461:    292  85  11  710
1477477492.463:    233  85  11  710
1477477492.470:    178  85  11  710
1477477492.471:    185  85  11  710
1477477492.475:    254  85  11  710
1477477492.476:    315  85  11  710
1477477492.479:    299  85  11  710
1477477492.479:    220  85  11  710
1477477492.493:    164  85  11  710
1477477492.493:    191  85  11  710
1477477492.493:    267  85  11  710
1477477492.493:    306  85  11  710
1477477492.493:    272  85  11  710
1477477492.493:    208  85  11  710
1477477492.493:    173  85  11  710
1477477492.494:    176  85  11  710
1477477492.494:    183  85  11  710
1477477492.494:    177  85  11  710
1477477492.497:    177  85  11  710
1477477492.500:    193  85  11  710
1477477492.501:    200  85  11  710
1477477492.502:    173  85  11  710
1477477492.503:    135  85  11  710
1477477492.506:    132  85  11  710
1477477492.521:    171  85  11  710
1477477492.522:    198  85  11  710
