timestamp: ADC HeartRate4sAverage HeartRate30sAverage HRV8sAverage
1477482651.720:     48  75  10  801
1477482651.720:     57  75  10  801
1477482651.732:     32  75  10  801
1477482651.732:     18  75  10  801
1477482651.732:     26  75  10  801
1477482651.732:     20  75  10  801
1477482651.732:    -31  75  10  801
1477482651.732:   -101  75  10  801
1477482651.732:   -137  75  10  801
1477482651.733:   -125  75  10  801
1477482651.733:   -101  75  10  801
1477482651.733:   -100  75  10  801
1477482651.733:   -109  75  10  801
1477482651.733:    -91  75  10  801
1477482651.733:    -44  75  10  801
1477482651.733:    -10  75  10  801
1477482651.734:    -28  75  10  801
1477482651.734:    -77  75  10  801
1477482651.735:    -96  75  10  801
1477482651.735:    -62  75  10  801
1477482651.737:    -11  75  10  801
1477482651.737:      7  75  10  801
1477482651.741:    -19  75  10  801
1477482651.743:    -54  75  10  801
1477482651.747:    -67  75  10  801
1477482651.747:    -55  75  10  801
1477482651.749:    -41  75  10  801
1477482651.751:    -33  75  10  801
1477482651.768:    -26  75  10  801
1477482651.768:    -11  75  10  801
1477482651.769:      8  75  10  801
1477482651.769:     30  75  10  801
1477482651.769:     52  75  10  801
1477482651.769:     69  75  10  801
1477482651.770:     71  75  10  801
1477482651.770:     52  75  10  801
1477482651.770:     13  75  10  801
1477482651.771:    -32  75  10  801
1477482651.775:    -60  75  10  801
1477482651.775:    -62  75  10  801
1477482651.796:    -43  75  10  801
1477482651.797:    -20  75  10  801
1477482651.799:     -5  75  10  801
1477482651.801:     -1  75  10  801
1477482651.801:     -5  75  10  801
1477482651.801:    -15  75  10  801
1477482651.804:    -40  75  10  801
1477482651.804:    -78  75  10  801
1477482651.804:   -114  75  10  801
1477482651.804:   -129  75  10  801
1477482651.804:   -116  75  10  801
1477482651.806:    -90  75  10  801
1477482651.823:    -67  75  10  801
1477482651.879:    -64  75  10  801
1477482651.881:    -81  75  10  801
1477482651.881:   -103  75  10  801
1477482651.881:   -116  75  10  801
1477482651.881:   -113  75  10  801
1477482651.882:   -107  75  10  801
1477482651.882:   -113  75  10  801
1477482651.882:   -131  75  10  801
1477482651.882:   -143  75  10  801
1477482651.882:   -131  75  10  801
1477482651.882:   -109  75  10  801
1477482651.882:   -121  75  10  801
1477482651.882:   -180  75  10  801
1477482651.883:   -254  75  10  801
1477482651.883:   -294  75  10  801
1477482651.883:   -296  75  10  801
1477482651.883:   -308  75  10  801
1477482651.883:   -373  75  10  801
1477482651.883:   -468  75  10  801
1477482651.883:   -523  75  10  801
1477482651.884:   -504  75  10  801
1477482651.884:   -457  75  10  801
1477482651.884:   -450  75  10  801
1477482651.884:   -507  75  10  801
1477482651.884:   -583  75  10  801
1477482651.884:   -618  75  10  801
1477482651.884:   -596  75  10  801
1477482651.884:   -546  75  10  801
1477482651.885:   -512  75  10  801
1477482651.885:   -514  75  10  801
1477482651.885:   -542  75  10  801
1477482651.885:   -571  75  10  801
1477482651.885:   -587  75  10  801
1477482651.885:   -592  75  10  801
1477482651.885:   -605  75  10  801
1477482651.886:   -636  75  10  801
1477482651.886:   -675  75  10  801
1477482651.886:   -691  75  10  801
1477482651.886:   -679  75  10  801
1477482651.886:   -658  75  10  801
1477482651.886:   -648  75  10  801
1477482651.886:   -647  75  10  801
1477482651.887:   -637  75  10  801
1477482651.887:   -616  75  10  801
1477482651.890:   -602  75  10  801
1477482651.890:   -612  75  10  801
1477482651.892:   -630  75  10  801
1477482651.892:   -623  75  10  801
1477482651.896:   -572  75  10  801
1477482651.906:   -490  75  10  801
1477482651.906:   -405  75  10  801
1477482651.906:   -333  75  10  801
1477482651.907:   -260  75  10  801
1477482651.907:   -169  75  10  801
1477482651.908:    -69  75  10  801
1477482651.940:     20  75  10  801
1477482651.944:     97  75  10  801
1477482651.944:    177  75  10  801
1477482651.945:    269  75  10  801
1477482651.945:    356  75  10  801
1477482651.946:    412  75  10  801
1477482651.946:    437  75  10  801
1477482651.948:    456  75  10  801
1477482651.951:    492  75  10  801
1477482651.951:    527  75  10  801
1477482651.951:    528  75  10  801
1477482651.951:    500  75  10  801
1477482651.952:    492  75  10  801
1477482651.952:    545  75  10  801
1477482651.952:    641  75  10  801
1477482651.952:    715  75  10  801
1477482651.953:    726  75  10  801
1477482651.953:    703  75  10  801
1477482651.953:    697  75  10  801
1477482651.953:    727  75  10  801
1477482651.954:    762  75  10  801
1477482651.956:    766  75  10  801
1477482651.957:    740  75  10  801
1477482651.958:    715  75  10  801
1477482651.959:    717  75  10  801
1477482651.960:    747  75  10  801
1477482651.961:    780  75  10  801
1477482651.963:    786  75  10  801
1477482651.964:    761  75  10  801
1477482651.966:    723  75  10  801
1477482651.967:    698  75  10  801
1477482651.972:    690  75  10  801
1477482651.981:    676  75  10  801
1477482651.981:    632  75  10  801
1477482651.981:    561  75  10  801
1477482651.981:    496  75  10  801
1477482651.982:    451  75  10  801
1477482651.982:    396  75  10  801
1477482651.986:    288  75  10  801
1477482651.986:    129  75  10  801
1477482651.987:    -33  75  10  801
1477482651.989:   -155  75  10  801
1477482651.991:   -230  75  10  801
1477482651.994:   -273  75  10  801
1477482652.004:   -296  75  10  801
1477482652.004:   -302  75  10  801
1477482652.004:   -304  75  10  801
1477482652.004:   -322  75  10  801
1477482652.005:   -354  75  10  801
1477482652.005:   -377  75  10  801
1477482652.008:   -388  75  10  801
1477482652.009:   -423  75  10  801
1477482652.011:   -519  75  10  801
1477482652.012:   -660  75  10  801
1477482652.015:   -781  75  10  801
1477482652.016:   -836  75  10  801
1477482652.019:   -851  75  10  801
1477482652.021:   -893  75  10  801
1477482652.030:   -988  75  10  801
1477482652.031:  -1086  75  10  801
1477482652.031:  -1117  75  10  801
1477482652.031:  -1083  75  10  801
1477482652.031:  -1049  75  10  801
1477482652.036:  -1063  75  10  801
1477482652.036:  -1109  75  10  801
1477482652.037:  -1136  75  10  801
1477482652.039:  -1112  75  10  801
1477482652.043:  -1059  75  10  801
1477482652.044:  -1014  75  10  801
1477482652.045:   -999  75  10  801
1477482652.046:  -1025  75  10  801
1477482652.049:  -1081  75  10  801
1477482652.060:  -1126  75  10  801
1477482652.062:  -1110  75  10  801
1477482652.063:  -1025  75  10  801
1477482652.063:   -926  75  10  801
1477482652.064:   -870  75  10  801
1477482652.065:   -854  75  10  801
1477482652.065:   -810  75  10  801
1477482652.067:   -700  75  10  801
1477482652.080:   -565  75  10  801
1477482652.081:   -474  75  10  801
1477482652.082:   -435  75  10  801
1477482652.082:   -389  75  10  801
1477482652.083:   -287  75  10  801
1477482652.084:   -153  75  10  801
1477482652.084:    -22  75  10  801
1477482652.085:    104  75  10  801
1477482652.086:    251  75  10  801
1477482652.086:    422  75  10  801
1477482652.086:    586  75  10  801
1477482652.092:    716  75  10  801
1477482652.110:    814  75  10  801
1477482652.111:    886  75  10  801
1477482652.112:    917  75  10  801
1477482652.112:    896  75  10  801
1477482652.113:    838  75  10  801
1477482652.114:    758  75  10  801
1477482652.116:    624  75  10  801
1477482652.117:    393  75  10  801
1477482652.118:     70  75  10  801
1477482652.119:   -269  75  10  801
1477482652.119:   -547  75  10  801
1477482652.120:   -759  75  10  801
1477482652.120:   -949  75  10  801
1477482652.121:  -1136  75  10  801
1477482652.138:  -1283  75  10  801
1477482652.139:  -1351  75  10  801
1477482652.140:  -1352  75  10  801
1477482652.140:  -1333  75  10  801
1477482652.141:  -1319  75  10  801
1477482652.142:  -1302  75  10  801
1477482652.142:  -1266  75  10  801
1477482652.143:  -1214  75  10  801
1477482652.144:  -1164  75  10  801
1477482652.144:  -1124  75  10  801
1477482652.145:  -1085  75  10  801
1477482652.145:  -1029  75  10  801
1477482652.159:   -953  75  10  801
1477482652.160:   -872  75  10  801
1477482652.160:   -811  75  10  801
1477482652.160:   -778  75  10  801
1477482652.160:   -761  75  10  801
1477482652.161:   -730  75  10  801
1477482652.161:   -667  75  10  801
1477482652.161:   -586  75  10  801
1477482652.161:   -519  75  10  801
1477482652.162:   -488  75  10  801
1477482652.165:   -492  75  10  801
1477482652.165:   -520  75  10  801
1477482652.169:   -558  75  10  801
1477482652.169:   -599  75  10  801
1477482652.182:   -644  75  10  801
1477482652.182:   -699  75  10  801
1477482652.182:   -761  75  10  801
1477482652.182:   -817  75  10  801
1477482652.183:   -845  75  10  801
1477482652.184:   -827  75  10  801
1477482652.184:   -774  75  10  801
1477482652.184:   -726  75  10  801
1477482652.185:   -716  75  10  801
1477482652.187:   -729  75  10  801
1477482652.191:   -718  75  10  801
1477482652.191:   -637  75  10  801
1477482652.215:   -489  75  10  801
1477482652.215:   -329  75  10  801
1477482652.216:   -219  75  10  801
1477482652.216:   -162  75  10  801
1477482652.216:   -102  75  10  801
1477482652.216:      1  75  10  801
1477482652.216:    119  75  10  801
1477482652.216:    176  75  10  801
1477482652.217:    136  75  10  801
1477482652.217:     50  75  10  801
1477482652.217:     -2  75  10  801
1477482652.217:      3  75  10  801
1477482652.219:     17  75  10  801
1477482652.219:     -8  75  10  801
1477482652.220:    -56  75  10  801
1477482652.221:    -83  75  10  801
1477482652.223:    -80  75  10  801
1477482652.225:    -86  75  10  801
1477482652.237:   -131  75  10  801
1477482652.237:   -189  75  10  801
1477482652.237:   -199  75  10  801
1477482652.238:   -133  75  10  801
1477482652.238:    -22  75  10  801
1477482652.238:     83  75  10  801
1477482652.239:    154  75  10  801
1477482652.242:    206  75  10  801
1477482652.246:    266  75  10  801
1477482652.246:    333  75  10  801
1477482652.249:    378  75  10  801
1477482652.250:    375  75  10  801
1477482652.263:    333  75  10  801
1477482652.264:    291  75  10  801
1477482652.264:    281  75  10  801
1477482652.264:    302  75  10  801
1477482652.265:    339  75  10  801
1477482652.265:    385  76  10  814
1477482652.266:    453  76  10  814
1477482652.266:    550  76  10  814
1477482652.267:    654  76  10  814
1477482652.269:    736  76  10  814
1477482652.273:    791  76  10  814
1477482652.274:    848  76  10  814
1477482652.283:    922  76  10  814
1477482652.283:    988  76  10  814
1477482652.283:   1015  76  10  814
1477482652.284:   1002  76  10  814
1477482652.284:    982  76  10  814
1477482652.287:    985  76  10  814
1477482652.288:   1002  76  10  814
1477482652.289:   1014  76  10  814
1477482652.292:   1029  76  10  814
1477482652.293:   1074  76  10  814
1477482652.306:   1155  76  10  814
1477482652.306:   1236  76  10  814
1477482652.306:   1285  76  10  814
1477482652.306:   1309  76  10  814
1477482652.307:   1341  76  10  814
1477482652.307:   1386  76  10  814
1477482652.307:   1412  76  10  814
1477482652.310:   1389  76  10  814
1477482652.310:   1335  76  10  814
1477482652.311:   1306  76  10  814
1477482652.314:   1328  76  10  814
1477482652.315:   1364  76  10  814
1477482652.325:   1366  76  10  814
1477482652.326:   1333  76  10  814
1477482652.326:   1303  76  10  814
1477482652.326:   1302  76  10  814
1477482652.330:   1310  76  10  814
1477482652.330:   1286  76  10  814
1477482652.331:   1239  76  10  814
1477482652.332:   1218  76  10  814
1477482652.333:   1247  76  10  814
1477482652.336:   1294  76  10  814
1477482652.339:   1306  76  10  814
1477482652.343:   1274  76  10  814
1477482652.344:   1238  76  10  814
1477482652.345:   1230  76  10  814
1477482652.346:   1231  76  10  814
1477482652.347:   1196  76  10  814
1477482652.350:   1109  76  10  814
1477482652.352:   1007  76  10  814
1477482652.357:    935  76  10  814
1477482652.357:    900  76  10  814
1477482652.372:    874  76  10  814
1477482652.373:    834  76  10  814
1477482652.373:    784  76  10  814
1477482652.374:    740  76  10  814
1477482652.375:    702  76  10  814
1477482652.375:    656  76  10  814
1477482652.376:    600  76  10  814
1477482652.376:    558  76  10  814
1477482652.379:    542  76  10  814
1477482652.379:    542  76  10  814
1477482652.379:    525  76  10  814
1477482652.380:    477  76  10  814
1477482652.392:    412  76  10  814
1477482652.392:    355  76  10  814
1477482652.393:    309  76  10  814
1477482652.393:    255  76  10  814
1477482652.393:    179  76  10  814
1477482652.394:     98  76  10  814
1477482652.394:     47  76  10  814
1477482652.396:     42  76  10  814
1477482652.397:     55  76  10  814
1477482652.399:     48  76  10  814
1477482652.404:     11  76  10  814
1477482652.405:    -34  76  10  814
1477482652.406:    -67  76  10  814
1477482652.406:    -87  76  10  814
1477482652.409:   -124  76  10  814
1477482652.411:   -191  76  10  814
1477482652.412:   -254  76  10  814
1477482652.417:   -272  76  10  814
1477482652.442:   -241  76  10  814
1477482652.443:   -200  76  10  814
1477482652.444:   -188  76  10  814
1477482652.445:   -211  76  10  814
1477482652.445:   -239  76  10  814
1477482652.446:   -247  76  10  814
1477482652.447:   -245  76  10  814
1477482652.447:   -264  76  10  814
1477482652.449:   -310  76  10  814
1477482652.449:   -358  76  10  814
1477482652.450:   -381  76  10  814
1477482652.451:   -375  76  10  814
1477482652.451:   -359  76  10  814
1477482652.452:   -361  76  10  814
1477482652.453:   -388  76  10  814
1477482652.453:   -427  76  10  814
1477482652.467:   -464  76  10  814
1477482652.467:   -499  76  10  814
1477482652.468:   -544  76  10  814
1477482652.469:   -598  76  10  814
1477482652.470:   -637  76  10  814
1477482652.470:   -637  76  10  814
1477482652.471:   -602  76  10  814
1477482652.471:   -579  76  10  814
1477482652.472:   -607  76  10  814
1477482652.473:   -672  76  10  814
1477482652.485:   -719  76  10  814
1477482652.488:   -705  76  10  814
1477482652.489:   -651  76  10  814
1477482652.489:   -615  76  10  814
1477482652.492:   -626  76  10  814
1477482652.494:   -654  76  10  814
1477482652.505:   -661  76  10  814
1477482652.505:   -639  76  10  814
1477482652.508:   -616  76  10  814
1477482652.508:   -610  76  10  814
1477482652.509:   -618  76  10  814
1477482652.509:   -635  76  10  814
1477482652.509:   -664  76  10  814
1477482652.509:   -704  76  10  814
1477482652.509:   -728  76  10  814
1477482652.510:   -709  76  10  814
1477482652.510:   -656  76  10  814
1477482652.510:   -621  76  10  814
1477482652.510:   -648  76  10  814
1477482652.510:   -720  76  10  814
1477482652.511:   -776  76  10  814
1477482652.511:   -786  76  10  814
1477482652.513:   -768  76  10  814
1477482652.513:   -758  76  10  814
1477482652.525:   -768  76  10  814
1477482652.525:   -786  76  10  814
1477482652.525:   -797  76  10  814
1477482652.526:   -796  76  10  814
1477482652.528:   -782  76  10  814
1477482652.528:   -757  76  10  814
1477482652.529:   -751  76  10  814
1477482652.529:   -798  76  10  814
1477482652.531:   -888  76  10  814
1477482652.532:   -952  76  10  814
1477482652.533:   -929  76  10  814
1477482652.541:   -852  76  10  814
1477482652.543:   -822  76  10  814
1477482652.544:   -888  76  10  814
1477482652.544:   -987  76  10  814
1477482652.545:  -1014  76  10  814
1477482652.546:   -953  76  10  814
1477482652.549:   -902  76  10  814
1477482652.550:   -946  76  10  814
1477482652.552:  -1050  76  10  814
1477482652.570:  -1107  76  10  814
1477482652.641:  -1073  76  10  814
1477482652.644:  -1013  76  10  814
1477482652.648:  -1009  76  10  814
1477482652.649:  -1060  76  10  814
1477482652.650:  -1100  76  10  814
1477482652.664:  -1091  76  10  814
1477482652.664:  -1067  76  10  814
1477482652.666:  -1080  76  10  814
1477482652.666:  -1127  76  10  814
1477482652.666:  -1160  76  10  814
1477482652.667:  -1152  76  10  814
1477482652.667:  -1122  76  10  814
1477482652.667:  -1095  76  10  814
1477482652.668:  -1084  76  10  814
1477482652.668:  -1088  76  10  814
1477482652.668:  -1118  76  10  814
1477482652.669:  -1167  76  10  814
1477482652.669:  -1203  76  10  814
1477482652.670:  -1186  76  10  814
1477482652.670:  -1126  76  10  814
1477482652.670:  -1084  76  10  814
1477482652.670:  -1111  76  10  814
1477482652.670:  -1177  76  10  814
1477482652.671:  -1209  76  10  814
1477482652.671:  -1179  76  10  814
1477482652.671:  -1142  76  10  814
1477482652.671:  -1163  76  10  814
1477482652.671:  -1241  76  10  814
1477482652.672:  -1305  76  10  814
1477482652.683:  -1307  76  10  814
1477482652.683:  -1267  76  10  814
1477482652.684:  -1237  76  10  814
1477482652.684:  -1230  76  10  814
1477482652.685:  -1217  76  10  814
1477482652.685:  -1189  76  10  814
1477482652.685:  -1175  76  10  814
1477482652.686:  -1205  76  10  814
1477482652.686:  -1263  76  10  814
1477482652.686:  -1300  76  10  814
1477482652.687:  -1291  76  10  814
1477482652.687:  -1262  76  10  814
1477482652.687:  -1250  76  10  814
1477482652.689:  -1255  76  10  814
1477482652.689:  -1245  76  10  814
1477482652.690:  -1209  76  10  814
1477482652.691:  -1170  76  10  814
1477482652.691:  -1156  76  10  814
1477482652.691:  -1165  76  10  814
1477482652.692:  -1174  76  10  814
1477482652.703:  -1167  76  10  814
1477482652.704:  -1151  76  10  814
1477482652.705:  -1140  76  10  814
1477482652.705:  -1126  76  10  814
1477482652.706:  -1102  76  10  814
1477482652.706:  -1085  76  10  814
1477482652.722:  -1096  76  10  814
1477482652.723:  -1131  76  10  814
1477482652.724:  -1159  76  10  814
1477482652.725:  -1166  76  10  814
1477482652.725:  -1174  76  10  814
1477482652.726:  -1202  76  10  814
1477482652.727:  -1231  76  10  814
1477482652.727:  -1221  76  10  814
1477482652.728:  -1170  76  10  814
1477482652.729:  -1122  76  10  814
1477482652.729:  -1112  76  10  814
1477482652.730:  -1121  76  10  814
1477482652.741:  -1104  76  10  814
1477482652.741:  -1068  76  10  814
1477482652.742:  -1063  76  10  814
1477482652.744:  -1105  76  10  814
1477482652.745:  -1139  76  10  814
1477482652.745:  -1115  76  10  814
1477482652.746:  -1059  76  10  814
1477482652.746:  -1051  76  10  814
1477482652.747:  -1117  76  10  814
1477482652.749:  -1189  76  10  814
1477482652.760:  -1191  76  10  814
1477482652.760:  -1139  76  10  814
1477482652.761:  -1110  76  10  814
1477482652.761:  -1146  76  10  814
1477482652.761:  -1194  76  10  814
1477482652.762:  -1193  76  10  814
1477482652.762:  -1158  76  10  814
1477482652.762:  -1165  76  10  814
1477482652.762:  -1260  76  10  814
1477482652.763:  -1398  76  10  814
1477482652.763:  -1497  76  10  814
1477482652.763:  -1532  76  10  814
1477482652.763:  -1546  76  10  814
1477482652.763:  -1593  76  10  814
1477482652.764:  -1664  76  10  814
1477482652.764:  -1710  76  10  814
1477482652.764:  -1694  76  10  814
1477482652.765:  -1643  76  10  814
1477482652.765:  -1619  76  10  814
1477482652.765:  -1656  76  10  814
1477482652.765:  -1729  76  10  814
1477482652.766:  -1792  76  10  814
1477482652.766:  -1829  76  10  814
1477482652.766:  -1849  76  10  814
1477482652.766:  -1865  76  10  814
1477482652.766:  -1864  76  10  814
1477482652.767:  -1832  76  10  814
1477482652.767:  -1782  76  10  814
1477482652.768:  -1756  76  10  814
1477482652.769:  -1772  76  10  814
1477482652.769:  -1812  76  10  814
1477482652.769:  -1843  76  10  814
1477482652.772:  -1855  76  10  814
1477482652.773:  -1858  76  10  814
1477482652.774:  -1869  76  10  814
1477482652.778:  -1885  76  10  814
1477482652.786:  -1893  76  10  814
1477482652.786:  -1880  76  10  814
1477482652.787:  -1850  76  10  814
1477482652.788:  -1814  76  10  814
1477482652.788:  -1785  76  10  814
1477482652.789:  -1775  76  10  814
1477482652.789:  -1789  76  10  814
1477482652.790:  -1812  76  10  814
1477482652.793:  -1820  76  10  814
1477482652.797:  -1800  76  10  814
1477482652.805:  -1769  76  10  814
1477482652.805:  -1752  76  10  814
1477482652.805:  -1758  76  10  814
1477482652.808:  -1769  76  10  814
1477482652.809:  -1756  76  10  814
1477482652.809:  -1721  76  10  814
1477482652.810:  -1701  76  10  814
1477482652.814:  -1716  76  10  814
1477482652.823:  -1743  76  10  814
1477482652.824:  -1741  76  10  814
1477482652.825:  -1703  76  10  814
1477482652.825:  -1664  76  10  814
1477482652.826:  -1674  76  10  814
1477482652.827:  -1726  76  10  814
1477482652.827:  -1775  76  10  814
1477482652.828:  -1790  76  10  814
1477482652.830:  -1792  76  10  814
1477482652.831:  -1825  76  10  814
1477482652.842:  -1879  76  10  814
1477482652.842:  -1894  76  10  814
1477482652.843:  -1833  76  10  814
1477482652.844:  -1733  76  10  814
1477482652.844:  -1664  76  10  814
1477482652.845:  -1649  76  10  814
1477482652.845:  -1650  76  10  814
1477482652.846:  -1629  76  10  814
1477482652.850:  -1604  76  10  814
1477482652.851:  -1616  76  10  814
1477482652.856:  -1647  76  10  814
1477482652.857:  -1610  76  10  814
1477482652.859:  -1445  76  10  814
1477482652.860:  -1198  76  10  814
1477482652.861:   -983  76  10  814
1477482652.862:   -859  76  10  814
1477482652.865:   -781  76  10  814
1477482652.869:   -666  76  10  814
1477482652.870:   -506  76  10  814
1477482652.871:   -387  76  10  814
1477482652.884:   -400  76  10  814
1477482652.885:   -555  76  10  814
1477482652.886:   -786  76  10  814
1477482652.887:  -1033  76  10  814
1477482652.888:  -1278  76  10  814
1477482652.889:  -1541  76  10  814
1477482652.889:  -1828  76  10  814
1477482652.892:  -2116  76  10  814
1477482652.904:  -2368  76  10  814
1477482652.905:  -2544  76  10  814
1477482652.906:  -2622  76  10  814
1477482652.907:  -2602  76  10  814
1477482652.907:  -2514  76  10  814
1477482652.909:  -2396  76  10  814
1477482652.911:  -2263  76  10  814
1477482652.912:  -2113  76  10  814
1477482652.924:  -1945  76  10  814
1477482652.925:  -1790  76  10  814
1477482652.926:  -1687  76  10  814
1477482652.927:  -1641  76  10  814
1477482652.928:  -1614  76  10  814
1477482652.928:  -1564  76  10  814
1477482652.948:  -1492  76  10  814
1477482652.950:  -1435  76  10  814
1477482652.952:  -1425  76  10  814
1477482652.954:  -1449  76  10  814
1477482652.968:  -1472  76  10  814
1477482652.969:  -1475  76  10  814
1477482652.970:  -1468  80  10  780
1477482652.970:  -1458  80  10  780
1477482652.971:  -1440  80  10  780
1477482652.972:  -1409  80  10  780
1477482652.972:  -1383  80  10  780
1477482652.973:  -1384  80  10  780
1477482652.975:  -1391  80  10  780
1477482652.976:  -1366  80  10  780
1477482652.988:  -1306  80  10  780
1477482652.989:  -1260  80  10  780
1477482652.990:  -1274  80  10  780
1477482652.990:  -1330  80  10  780
1477482652.992:  -1354  80  10  780
1477482652.992:  -1313  80  10  780
1477482652.993:  -1264  80  10  780
1477482652.993:  -1278  80  10  780
1477482652.994:  -1341  80  10  780
1477482652.995:  -1366  80  10  780
1477482653.008:  -1312  80  10  780
1477482653.008:  -1240  80  10  780
1477482653.009:  -1248  80  10  780
1477482653.010:  -1338  80  10  780
1477482653.010:  -1412  80  10  780
1477482653.011:  -1384  80  10  780
1477482653.011:  -1288  80  10  780
1477482653.012:  -1233  80  10  780
1477482653.012:  -1267  80  10  780
1477482653.012:  -1326  80  10  780
1477482653.013:  -1325  80  10  780
1477482653.013:  -1262  80  10  780
1477482653.014:  -1218  80  10  780
1477482653.014:  -1256  80  10  780
1477482653.027:  -1353  80  10  780
1477482653.028:  -1426  80  10  780
1477482653.028:  -1428  80  10  780
1477482653.029:  -1392  80  10  780
1477482653.030:  -1379  80  10  780
1477482653.030:  -1403  80  10  780
1477482653.031:  -1431  80  10  780
1477482653.032:  -1421  80  10  780
1477482653.032:  -1384  80  10  780
1477482653.033:  -1366  80  10  780
1477482653.034:  -1395  80  10  780
1477482653.036:  -1441  80  10  780
1477482653.037:  -1449  80  10  780
1477482653.038:  -1402  80  10  780
1477482653.039:  -1345  80  10  780
1477482653.039:  -1325  80  10  780
1477482653.039:  -1341  80  10  780
1477482653.039:  -1361  80  10  780
1477482653.040:  -1357  80  10  780
1477482653.040:  -1340  80  10  780
1477482653.040:  -1334  80  10  780
1477482653.040:  -1339  80  10  780
1477482653.041:  -1333  80  10  780
1477482653.042:  -1310  80  10  780
1477482653.042:  -1289  80  10  780
1477482653.042:  -1281  80  10  780
1477482653.042:  -1277  80  10  780
1477482653.043:  -1261  80  10  780
1477482653.047:  -1235  80  10  780
1477482653.048:  -1218  80  10  780
1477482653.051:  -1222  80  10  780
1477482653.051:  -1233  80  10  780
1477482653.052:  -1235  80  10  780
1477482653.054:  -1218  80  10  780
1477482653.077:  -1184  80  10  780
1477482653.077:  -1133  80  10  780
1477482653.077:  -1073  80  10  780
1477482653.078:  -1032  80  10  780
1477482653.078:  -1037  80  10  780
1477482653.079:  -1076  80  10  780
1477482653.080:  -1096  80  10  780
1477482653.081:  -1048  80  10  780
1477482653.082:   -943  80  10  780
1477482653.084:   -843  80  10  780
1477482653.084:   -803  80  10  780
1477482653.084:   -815  80  10  780
1477482653.084:   -818  80  10  780
1477482653.084:   -764  80  10  780
1477482653.085:   -663  80  10  780
1477482653.086:   -576  80  10  780
1477482653.089:   -557  80  10  780
1477482653.093:   -602  80  10  780
1477482653.094:   -650  80  10  780
1477482653.095:   -641  80  10  780
1477482653.096:   -568  80  10  780
1477482653.099:   -478  80  10  780
1477482653.100:   -423  80  10  780
1477482653.102:   -412  80  10  780
1477482653.113:   -421  80  10  780
1477482653.113:   -428  80  10  780
1477482653.113:   -435  80  10  780
1477482653.113:   -452  80  10  780
1477482653.113:   -466  80  10  780
1477482653.113:   -454  80  10  780
1477482653.116:   -417  80  10  780
1477482653.117:   -387  80  10  780
1477482653.121:   -388  80  10  780
1477482653.122:   -407  80  10  780
1477482653.124:   -418  80  10  780
1477482653.124:   -408  80  10  780
1477482653.135:   -404  80  10  780
1477482653.135:   -441  80  10  780
1477482653.135:   -511  80  10  780
1477482653.136:   -574  80  10  780
1477482653.136:   -599  80  10  780
1477482653.137:   -594  80  10  780
1477482653.139:   -590  80  10  780
1477482653.141:   -614  80  10  780
1477482653.142:   -661  80  10  780
1477482653.145:   -710  80  10  780
1477482653.160:   -746  80  10  780
1477482653.161:   -784  80  10  780
1477482653.162:   -844  80  10  780
1477482653.163:   -923  80  10  780
1477482653.163:   -994  80  10  780
1477482653.164:  -1029  80  10  780
1477482653.164:  -1020  80  10  780
1477482653.169:  -1004  80  10  780
1477482653.170:  -1024  80  10  780
1477482653.170:  -1086  80  10  780
1477482653.170:  -1151  80  10  780
1477482653.170:  -1178  80  10  780
1477482653.183:  -1163  80  10  780
1477482653.183:  -1147  80  10  780
1477482653.183:  -1166  80  10  780
1477482653.183:  -1211  80  10  780
1477482653.184:  -1234  80  10  780
1477482653.184:  -1208  80  10  780
1477482653.184:  -1165  80  10  780
1477482653.185:  -1155  80  10  780
1477482653.185:  -1198  80  10  780
1477482653.190:  -1264  80  10  780
1477482653.200:  -1314  80  10  780
1477482653.200:  -1332  80  10  780
1477482653.201:  -1337  80  10  780
1477482653.201:  -1341  80  10  780
1477482653.201:  -1342  80  10  780
1477482653.201:  -1331  80  10  780
1477482653.204:  -1315  80  10  780
1477482653.204:  -1308  80  10  780
1477482653.207:  -1314  80  10  780
1477482653.207:  -1315  80  10  780
1477482653.209:  -1298  80  10  780
1477482653.210:  -1264  80  10  780
1477482653.218:  -1231  80  10  780
1477482653.218:  -1214  80  10  780
1477482653.218:  -1210  80  10  780
1477482653.219:  -1203  80  10  780
1477482653.222:  -1187  80  10  780
1477482653.223:  -1176  80  10  780
1477482653.224:  -1192  80  10  780
1477482653.231:  -1240  80  10  780
1477482653.235:  -1299  80  10  780
1477482653.235:  -1341  80  10  780
1477482653.235:  -1350  80  10  780
1477482653.235:  -1334  80  10  780
1477482653.237:  -1309  80  10  780
1477482653.238:  -1277  80  10  780
1477482653.245:  -1232  80  10  780
1477482653.245:  -1186  80  10  780
1477482653.253:  -1153  80  10  780
1477482653.253:  -1140  80  10  780
1477482653.253:  -1141  80  10  780
1477482653.254:  -1136  80  10  780
1477482653.254:  -1121  80  10  780
1477482653.254:  -1109  80  10  780
1477482653.257:  -1114  80  10  780
1477482653.258:  -1131  80  10  780
1477482653.263:  -1145  80  10  780
1477482653.264:  -1144  80  10  780
1477482653.271:  -1135  80  10  780
1477482653.326:  -1137  80  10  780
1477482653.327:  -1162  80  10  780
1477482653.327:  -1194  80  10  780
1477482653.327:  -1199  80  10  780
1477482653.327:  -1162  80  10  780
1477482653.327:  -1111  80  10  780
1477482653.327:  -1090  80  10  780
1477482653.327:  -1115  80  10  780
1477482653.328:  -1152  80  10  780
1477482653.328:  -1167  80  10  780
1477482653.329:  -1162  80  10  780
1477482653.329:  -1176  80  10  780
1477482653.329:  -1225  80  10  780
1477482653.329:  -1282  80  10  780
1477482653.329:  -1307  80  10  780
1477482653.330:  -1292  80  10  780
1477482653.330:  -1259  80  10  780
1477482653.330:  -1233  80  10  780
1477482653.330:  -1218  80  10  780
1477482653.330:  -1205  80  10  780
1477482653.331:  -1190  80  10  780
1477482653.331:  -1186  80  10  780
1477482653.331:  -1195  80  10  780
1477482653.331:  -1209  80  10  780
1477482653.331:  -1217  80  10  780
1477482653.331:  -1213  80  10  780
1477482653.332:  -1209  80  10  780
1477482653.332:  -1224  80  10  780
1477482653.332:  -1267  80  10  780
1477482653.332:  -1325  80  10  780
1477482653.332:  -1366  80  10  780
1477482653.333:  -1371  80  10  780
1477482653.333:  -1359  80  10  780
1477482653.333:  -1366  80  10  780
1477482653.337:  -1403  80  10  780
1477482653.348:  -1438  80  10  780
1477482653.348:  -1435  80  10  780
1477482653.349:  -1393  80  10  780
1477482653.349:  -1352  80  10  780
1477482653.349:  -1350  80  10  780
1477482653.349:  -1380  80  10  780
1477482653.350:  -1414  80  10  780
1477482653.350:  -1433  80  10  780
1477482653.354:  -1438  80  10  780
1477482653.354:  -1429  80  10  780
1477482653.357:  -1401  80  10  780
1477482653.360:  -1360  80  10  780
1477482653.369:  -1325  80  10  780
1477482653.370:  -1310  80  10  780
1477482653.370:  -1307  80  10  780
1477482653.371:  -1299  80  10  780
1477482653.373:  -1287  80  10  780
1477482653.373:  -1298  80  10  780
1477482653.374:  -1343  80  10  780
1477482653.375:  -1393  80  10  780
1477482653.379:  -1409  80  10  780
1477482653.380:  -1396  80  10  780
1477482653.381:  -1389  80  10  780
1477482653.384:  -1417  80  10  780
1477482653.385:  -1463  80  10  780
1477482653.389:  -1488  80  10  780
1477482653.389:  -1489  80  10  780
1477482653.390:  -1498  80  10  780
1477482653.391:  -1537  80  10  780
1477482653.395:  -1581  80  10  780
1477482653.395:  -1591  80  10  780
1477482653.396:  -1562  80  10  780
1477482653.399:  -1528  80  10  780
1477482653.399:  -1511  80  10  780
1477482653.416:  -1500  80  10  780
1477482653.416:  -1474  80  10  780
1477482653.417:  -1451  80  10  780
1477482653.417:  -1471  80  10  780
1477482653.417:  -1546  80  10  780
1477482653.417:  -1625  80  10  780
1477482653.417:  -1658  80  10  780
1477482653.417:  -1648  80  10  780
1477482653.418:  -1650  80  10  780
1477482653.426:  -1691  80  10  780
1477482653.436:  -1749  80  10  780
1477482653.436:  -1778  80  10  780
1477482653.436:  -1773  80  10  780
1477482653.436:  -1768  80  10  780
1477482653.437:  -1778  80  10  780
1477482653.437:  -1780  80  10  780
1477482653.437:  -1747  80  10  780
1477482653.437:  -1687  80  10  780
1477482653.438:  -1635  80  10  780
1477482653.440:  -1607  80  10  780
1477482653.441:  -1593  80  10  780
1477482653.444:  -1582  80  10  780
1477482653.446:  -1594  80  10  780
1477482653.450:  -1657  80  10  780
1477482653.456:  -1765  80  10  780
1477482653.456:  -1874  80  10  780
1477482653.457:  -1941  80  10  780
1477482653.457:  -1964  80  10  780
1477482653.459:  -1972  80  10  780
1477482653.460:  -1977  80  10  780
1477482653.464:  -1973  80  10  780
1477482653.465:  -1949  80  10  780
1477482653.473:  -1908  80  10  780
1477482653.473:  -1873  80  10  780
1477482653.473:  -1863  80  10  780
1477482653.474:  -1871  80  10  780
1477482653.474:  -1869  80  10  780
1477482653.479:  -1830  80  10  780
1477482653.479:  -1755  80  10  780
1477482653.479:  -1666  80  10  780
1477482653.482:  -1590  80  10  780
1477482653.489:  -1529  80  10  780
1477482653.495:  -1458  80  10  780
1477482653.495:  -1365  80  10  780
1477482653.495:  -1273  80  10  780
1477482653.495:  -1217  80  10  780
1477482653.496:  -1207  80  10  780
1477482653.496:  -1221  80  10  780
1477482653.497:  -1234  80  10  780
1477482653.498:  -1243  80  10  780
1477482653.501:  -1259  80  10  780
1477482653.505:  -1285  80  10  780
1477482653.505:  -1304  80  10  780
1477482653.506:  -1307  80  10  780
1477482653.508:  -1313  80  10  780
1477482653.510:  -1337  80  10  780
1477482653.512:  -1368  80  10  780
1477482653.514:  -1379  80  10  780
1477482653.519:  -1366  80  10  780
1477482653.519:  -1359  80  10  780
1477482653.521:  -1393  80  10  780
1477482653.522:  -1474  80  10  780
1477482653.536:  -1571  80  10  780
1477482653.536:  -1650  80  10  780
1477482653.537:  -1699  80  10  780
1477482653.537:  -1722  80  10  780
1477482653.537:  -1721  80  10  780
1477482653.539:  -1684  80  10  780
1477482653.541:  -1597  80  10  780
1477482653.544:  -1450  80  10  780
1477482653.545:  -1245  80  10  780
1477482653.545:  -1008  80  10  780
1477482653.547:   -793  80  10  780
1477482653.548:   -645  80  10  780
1477482653.558:   -570  80  10  780
1477482653.560:   -536  80  10  780
1477482653.562:   -495  80  10  780
1477482653.566:   -440  80  10  780
1477482653.576:   -389  80  10  780
1477482653.576:   -346  80  10  780
1477482653.577:   -282  80  10  780
1477482653.578:   -171  80  10  780
1477482653.579:    -28  80  10  780
1477482653.579:    101  80  10  780
1477482653.579:    185  80  10  780
1477482653.580:    233  80  10  780
1477482653.580:    281  80  10  780
1477482653.581:    345  80  10  780
1477482653.581:    404  80  10  780
1477482653.582:    436  80  10  780
1477482653.583:    453  80  10  780
1477482653.583:    487  80  10  780
1477482653.584:    558  80  10  780
1477482653.589:    658  80  10  780
1477482653.598:    755  80  10  780
1477482653.599:    820  80  10  780
1477482653.600:    845  80  10  780
1477482653.600:    853  80  10  780
1477482653.601:    883  80  10  780
1477482653.601:    957  80  10  780
1477482653.602:   1067  80  10  780
1477482653.602:   1176  80  10  780
1477482653.603:   1252  80  10  780
1477482653.604:   1302  80  10  780
1477482653.615:   1361  80  10  780
1477482653.616:   1442  80  10  780
1477482653.616:   1525  80  10  780
1477482653.617:   1577  80  10  780
1477482653.617:   1601  80  10  780
1477482653.618:   1637  80  10  780
1477482653.621:   1707  80  10  780
1477482653.622:   1783  80  10  780
1477482653.632:   1797  80  10  780
1477482653.633:   1716  80  10  780
1477482653.634:   1582  80  10  780
1477482653.634:   1469  80  10  780
1477482653.635:   1425  80  10  780
1477482653.635:   1443  80  10  780
1477482653.635:   1498  80  10  780
1477482653.639:   1588  80  10  780
1477482653.649:   1733  80  10  780
1477482653.649:   1943  80  10  780
1477482653.649:   2172  80  10  780
1477482653.649:   2342  80  10  780
1477482653.650:   2394  80  10  780
1477482653.650:   2333  80  10  780
1477482653.650:   2202  80  10  780
1477482653.653:   2025  80  10  780
1477482653.654:   1776  80  10  780
1477482653.657:   1420  80  10  780
1477482653.657:    966  80  10  780
1477482653.662:    483  80  10  780
1477482653.669:     29  80  10  780
1477482653.669:   -407  80  10  780
1477482653.669:   -872  80  10  780
1477482653.669:  -1360  80  10  780
1477482653.669:  -1775  80  10  780
1477482653.671:  -2006  80  10  780
1477482653.676:  -2041  80  10  780
1477482653.676:  -1978  80  10  780
1477482653.677:  -1927  80  10  780
1477482653.679:  -1884  80  10  780
1477482653.688:  -1767  80  10  780
1477482653.688:  -1532  80  10  780
1477482653.688:  -1256  80  10  780
1477482653.689:  -1069  80  10  780
1477482653.689:  -1025  80  10  780
1477482653.693:  -1038  80  10  780
1477482653.693:   -981  80  10  780
1477482653.696:   -814  80  10  780
1477482653.697:   -626  80  10  780
1477482653.699:   -514  80  10  780
1477482653.708:   -479  80  10  780
1477482653.708:   -432  80  10  780
1477482653.708:   -300  80  10  780
1477482653.708:   -105  80  10  780
1477482653.708:     76  80  10  780
1477482653.710:    212  80  10  780
1477482653.712:    348  80  10  780
1477482653.716:    524  80  10  780
1477482653.726:    709  80  10  780
1477482653.726:    831  80  10  780
1477482653.726:    868  80  10  780
1477482653.727:    878  80  10  780
1477482653.727:    926  80  10  780
1477482653.727:   1005  80  10  780
1477482653.731:   1045  80  10  780
1477482653.731:   1008  80  10  780
1477482653.733:    940  80  10  780
1477482653.735:    915  80  10  780
1477482653.736:    952  80  10  780
1477482653.739:    998  80  10  780
1477482653.740:   1000  80  10  780
1477482653.749:    960  80  10  780
1477482653.749:    928  80  10  780
1477482653.750:    937  80  10  780
1477482653.751:    975  80  10  780
1477482653.752:   1012  80  10  780
1477482653.754:   1029  80  10  780
1477482653.754:   1040  80  10  780
1477482653.758:   1051  80  10  780
1477482653.758:   1043  80  10  780
1477482653.772:    998  80  10  780
1477482653.773:    920  80  10  780
1477482653.774:    841  80  10  780
1477482653.775:    792  80  10  780
1477482653.776:    763  80  10  780
1477482653.776:    718  80  10  780
1477482653.777:    635  80  10  780
1477482653.778:    547  80  10  780
1477482653.779:    514  80  10  780
1477482653.780:    554  80  10  780
1477482653.791:    618  80  10  780
1477482653.792:    633  80  10  780
1477482653.793:    572  80  10  780
1477482653.794:    472  80  10  780
1477482653.794:    395  80  10  780
1477482653.795:    362  80  10  780
1477482653.795:    355  80  10  780
1477482653.797:    351  80  10  780
1477482653.798:    341  80  10  780
1477482653.799:    330  80  10  780
1477482653.810:    319  80  10  780
1477482653.810:    312  80  10  780
1477482653.811:    309  80  10  780
1477482653.811:    307  80  10  780
1477482653.813:    281  80  10  780
1477482653.813:    212  80  10  780
1477482653.813:    119  80  10  780
1477482653.814:     52  80  10  780
1477482653.814:     47  80  10  780
1477482653.817:     81  80  10  780
1477482653.818:    106  80  10  780
1477482653.820:     96  78  10  787
1477482653.822:     71  78  10  787
1477482653.824:     67  78  10  787
1477482653.826:     81  78  10  787
1477482653.832:     82  78  10  787
1477482653.845:     58  78  10  787
1477482653.845:     37  78  10  787
1477482653.845:     53  78  10  787
1477482653.845:     99  78  10  787
1477482653.845:    135  78  10  787
1477482653.846:    138  78  10  787
1477482653.846:    120  78  10  787
1477482653.846:    118  78  10  787
1477482653.846:    139  78  10  787
1477482653.847:    163  78  10  787
1477482653.850:    174  78  10  787
1477482653.852:    186  78  10  787
1477482653.853:    231  78  10  787
1477482653.858:    317  78  10  787
1477482653.858:    407  78  10  787
1477482653.861:    463  78  10  787
1477482653.861:    474  78  10  787
1477482653.867:    465  78  10  787
1477482653.867:    464  78  10  787
1477482653.869:    469  78  10  787
1477482653.870:    455  78  10  787
1477482653.873:    422  78  10  787
1477482653.874:    397  78  10  787
1477482653.875:    413  78  10  787
1477482653.890:    458  78  10  787
1477482653.890:    496  78  10  787
1477482653.891:    502  78  10  787
1477482653.891:    488  78  10  787
1477482653.891:    484  78  10  787
1477482653.892:    495  78  10  787
1477482653.892:    499  78  10  787
1477482653.894:    482  78  10  787
1477482653.895:    464  78  10  787
1477482653.895:    474  78  10  787
1477482653.899:    508  78  10  787
1477482653.899:    529  78  10  787
1477482653.907:    507  78  10  787
1477482653.907:    451  78  10  787
1477482653.908:    397  78  10  787
1477482653.908:    358  78  10  787
1477482653.909:    312  78  10  787
1477482653.913:    246  78  10  787
1477482653.913:    179  78  10  787
1477482653.915:    147  78  10  787
1477482653.916:    143  78  10  787
1477482653.918:    127  78  10  787
1477482653.953:     66  78  10  787
1477482653.954:    -22  78  10  787
1477482653.955:    -89  78  10  787
1477482653.956:   -125  78  10  787
1477482653.957:   -163  78  10  787
1477482653.958:   -230  78  10  787
1477482653.958:   -302  78  10  787
1477482653.959:   -326  78  10  787
1477482653.960:   -294  78  10  787
1477482653.961:   -251  78  10  787
1477482653.962:   -251  78  10  787
1477482653.962:   -301  78  10  787
1477482653.963:   -364  78  10  787
1477482653.963:   -411  78  10  787
1477482653.964:   -446  78  10  787
1477482653.966:   -489  78  10  787
1477482653.967:   -539  78  10  787
1477482653.967:   -571  78  10  787
1477482653.968:   -571  78  10  787
1477482653.969:   -559  78  10  787
1477482653.970:   -557  78  10  787
1477482653.970:   -575  78  10  787
1477482653.970:   -589  78  10  787
1477482653.971:   -586  78  10  787
1477482653.971:   -581  78  10  787
1477482653.971:   -601  78  10  787
1477482653.971:   -644  78  10  787
1477482653.976:   -679  78  10  787
1477482653.993:   -674  78  10  787
1477482653.993:   -633  78  10  787
1477482653.994:   -586  78  10  787
1477482653.994:   -560  78  10  787
1477482653.995:   -554  78  10  787
1477482653.995:   -561  78  10  787
1477482654.013:   -587  78  10  787
1477482654.013:   -636  78  10  787
1477482654.016:   -682  78  10  787
1477482654.017:   -683  78  10  787
1477482654.017:   -628  78  10  787
1477482654.018:   -575  78  10  787
1477482654.018:   -576  78  10  787
1477482654.018:   -618  78  10  787
1477482654.018:   -630  78  10  787
1477482654.019:   -572  78  10  787
1477482654.019:   -491  78  10  787
1477482654.019:   -459  78  10  787
1477482654.019:   -485  78  10  787
1477482654.020:   -510  78  10  787
1477482654.020:   -490  78  10  787
1477482654.020:   -455  78  10  787
1477482654.022:   -453  78  10  787
1477482654.023:   -482  78  10  787
1477482654.034:   -494  78  10  787
1477482654.034:   -470  78  10  787
1477482654.035:   -460  78  10  787
1477482654.035:   -514  78  10  787
1477482654.035:   -603  78  10  787
1477482654.036:   -645  78  10  787
1477482654.036:   -603  78  10  787
1477482654.036:   -526  78  10  787
1477482654.041:   -484  78  10  787
1477482654.041:   -489  78  10  787
1477482654.051:   -496  78  10  787
1477482654.052:   -474  78  10  787
1477482654.052:   -442  78  10  787
1477482654.052:   -437  78  10  787
1477482654.052:   -458  78  10  787
1477482654.053:   -469  78  10  787
1477482654.054:   -445  78  10  787
1477482654.060:   -403  78  10  787
1477482654.068:   -375  78  10  787
1477482654.069:   -378  78  10  787
1477482654.070:   -400  78  10  787
1477482654.070:   -416  78  10  787
1477482654.070:   -414  78  10  787
1477482654.070:   -406  78  10  787
1477482654.070:   -411  78  10  787
1477482654.072:   -430  78  10  787
1477482654.073:   -440  78  10  787
1477482654.077:   -412  78  10  787
1477482654.087:   -349  78  10  787
1477482654.087:   -289  78  10  787
1477482654.087:   -261  78  10  787
1477482654.087:   -258  78  10  787
1477482654.088:   -252  78  10  787
1477482654.089:   -239  78  10  787
1477482654.089:   -242  78  10  787
1477482654.091:   -267  78  10  787
1477482654.094:   -281  78  10  787
1477482654.096:   -245  78  10  787
1477482654.105:   -174  78  10  787
1477482654.106:   -127  78  10  787
1477482654.108:   -139  78  10  787
1477482654.108:   -179  78  10  787
1477482654.108:   -190  78  10  787
1477482654.108:   -158  78  10  787
1477482654.109:   -139  78  10  787
1477482654.113:   -175  78  10  787
1477482654.114:   -234  78  10  787
1477482654.115:   -240  78  10  787
1477482654.126:   -170  78  10  787
1477482654.191:    -87  78  10  787
1477482654.203:    -68  78  10  787
1477482654.203:   -111  78  10  787
1477482654.203:   -140  78  10  787
1477482654.203:   -109  78  10  787
1477482654.204:    -65  78  10  787
1477482654.204:    -76  78  10  787
1477482654.204:   -137  78  10  787
1477482654.204:   -166  78  10  787
1477482654.204:   -108  78  10  787
1477482654.204:     -7  78  10  787
1477482654.204:     49  78  10  787
1477482654.204:     35  78  10  787
1477482654.205:     15  78  10  787
1477482654.205:     47  78  10  787
1477482654.205:    100  78  10  787
1477482654.205:    101  78  10  787
1477482654.205:     38  78  10  787
1477482654.205:    -26  78  10  787
1477482654.206:    -36  78  10  787
1477482654.206:     -2  78  10  787
1477482654.206:     23  78  10  787
1477482654.206:     15  78  10  787
1477482654.206:     -1  78  10  787
1477482654.207:      4  78  10  787
1477482654.207:     16  78  10  787
1477482654.207:      7  78  10  787
1477482654.207:    -11  78  10  787
1477482654.207:     -5  78  10  787
1477482654.207:     40  78  10  787
1477482654.208:     90  78  10  787
1477482654.208:    106  78  10  787
1477482654.209:     87  78  10  787
1477482654.209:     71  78  10  787
1477482654.209:     84  78  10  787
1477482654.209:    109  78  10  787
1477482654.209:    108  78  10  787
1477482654.209:     86  78  10  787
1477482654.209:     88  78  10  787
1477482654.210:    143  78  10  787
1477482654.210:    223  78  10  787
1477482654.210:    274  78  10  787
1477482654.211:    276  78  10  787
1477482654.211:    271  78  10  787
1477482654.211:    306  78  10  787
1477482654.211:    362  78  10  787
1477482654.211:    380  78  10  787
1477482654.212:    333  78  10  787
1477482654.213:    267  78  10  787
1477482654.214:    250  78  10  787
1477482654.217:    293  78  10  787
1477482654.219:    345  78  10  787
1477482654.224:    352  78  10  787
1477482654.233:    314  78  10  787
1477482654.233:    277  78  10  787
1477482654.233:    266  78  10  787
1477482654.233:    265  78  10  787
1477482654.233:    253  78  10  787
1477482654.233:    239  78  10  787
1477482654.237:    255  78  10  787
1477482654.237:    311  78  10  787
1477482654.239:    387  78  10  787
1477482654.243:    452  78  10  787
1477482654.252:    494  78  10  787
1477482654.252:    520  78  10  787
1477482654.252:    539  78  10  787
1477482654.252:    521  78  10  787
1477482654.252:    440  78  10  787
1477482654.253:    334  78  10  787
1477482654.254:    271  78  10  787
1477482654.255:    267  78  10  787
1477482654.259:    263  78  10  787
1477482654.261:    198  78  10  787
1477482654.265:    101  78  10  787
1477482654.266:     57  78  10  787
1477482654.267:     68  78  10  787
1477482654.268:     20  78  10  787
1477482654.281:   -168  78  10  787
1477482654.281:   -400  78  10  787
1477482654.281:   -536  78  10  787
1477482654.282:   -656  78  10  787
1477482654.282:  -1081  78  10  787
1477482654.282:  -2000  78  10  787
1477482654.282:  -3132  78  10  787
1477482654.283:  -3893  78  10  787
1477482654.286:  -4001  78  10  787
1477482654.288:  -3813  78  10  787
1477482654.293:  -3931  78  10  787
1477482654.294:  -4502  78  10  787
1477482654.295:  -5009  78  10  787
1477482654.295:  -4827  78  10  787
1477482654.297:  -3888  78  10  787
1477482654.302:  -2723  78  10  787
1477482654.320:  -1899  78  10  787
1477482654.321:  -1518  78  10  787
1477482654.322:  -1286  78  10  787
1477482654.322:   -953  78  10  787
1477482654.325:   -569  78  10  787
1477482654.325:   -332  78  10  787
1477482654.326:   -315  78  10  787
1477482654.326:   -390  78  10  787
1477482654.327:   -389  78  10  787
1477482654.328:   -255  78  10  787
1477482654.340:    -47  78  10  787
1477482654.341:    167  78  10  787
1477482654.342:    364  78  10  787
1477482654.343:    573  78  10  787
1477482654.344:    814  78  10  787
1477482654.344:   1053  78  10  787
1477482654.345:   1206  78  10  787
1477482654.345:   1209  78  10  787
1477482654.359:   1085  78  10  787
1477482654.360:    957  78  10  787
1477482654.361:    951  78  10  787
1477482654.363:   1104  78  10  787
1477482654.363:   1331  78  10  787
1477482654.364:   1502  78  10  787
1477482654.364:   1534  78  10  787
1477482654.366:   1453  78  10  787
1477482654.384:   1340  78  10  787
1477482654.385:   1241  78  10  787
1477482654.386:   1126  78  10  787
1477482654.386:    915  78  10  787
1477482654.387:    545  78  10  787
1477482654.388:     17  78  10  787
1477482654.389:   -607  78  10  787
1477482654.390:  -1247  78  10  787
1477482654.390:  -1880  78  10  787
1477482654.391:  -2492  78  10  787
1477482654.392:  -2999  78  10  787
1477482654.393:  -3289  78  10  787
1477482654.394:  -3357  78  10  787
1477482654.395:  -3355  78  10  787
1477482654.396:  -3477  78  10  787
1477482654.396:  -3808  78  10  787
1477482654.397:  -4316  78  10  787
1477482654.397:  -4983  78  10  787
1477482654.399:  -5840  78  10  787
1477482654.400:  -6832  78  10  787
1477482654.400:  -7718  78  10  787
1477482654.400:  -8242  78  10  787
1477482654.400:  -8431  78  10  787
1477482654.401:  -8580  78  10  787
1477482654.426:  -8856  78  10  787
1477482654.427:  -9016  78  10  787
1477482654.428:  -8597  78  10  787
1477482654.429:  -7467  78  10  787
1477482654.429:  -6067  78  10  787
1477482654.430:  -4991  78  10  787
1477482654.431:  -4382  78  10  787
1477482654.431:  -3860  78  10  787
1477482654.433:  -3010  78  10  787
1477482654.433:  -1848  78  10  787
1477482654.434:   -736  78  10  787
1477482654.435:     35  78  10  787
1477482654.435:    476  78  10  787
1477482654.436:    743  78  10  787
1477482654.448:    924  78  10  787
1477482654.450:   1002  78  10  787
1477482654.451:    989  78  10  787
1477482654.452:    909  78  10  787
1477482654.453:    697  78  10  787
1477482654.453:    255  78  10  787
1477482654.454:   -344  78  10  787
1477482654.454:   -799  78  10  787
1477482654.455:   -826  78  10  787
1477482654.456:   -473  78  10  787
1477482654.467:    -69  78  10  787
1477482654.467:    114  78  10  787
1477482654.467:    133  78  10  787
1477482654.468:    249  78  10  787
1477482654.468:    607  78  10  787
1477482654.468:   1091  78  10  787
1477482654.469:   1505  78  10  787
1477482654.469:   1786  78  10  787
1477482654.469:   2010  78  10  787
1477482654.470:   2227  78  10  787
1477482654.470:   2374  78  10  787
1477482654.470:   2346  78  10  787
1477482654.471:   2133  78  10  787
1477482654.473:   1815  78  10  787
1477482654.476:   1502  78  10  787
1477482654.476:   1264  78  10  787
1477482654.478:   1119  78  10  787
1477482654.482:   1048  78  10  787
1477482654.483:    988  78  10  787
1477482654.485:    877  78  10  787
1477482654.486:    691  78  10  787
1477482654.490:    427  78  10  787
1477482654.508:     63  78  10  787
1477482654.508:   -426  78  10  787
1477482654.510:  -1023  78  10  787
1477482654.510:  -1622  78  10  787
1477482654.511:  -2061  78  10  787
1477482654.512:  -2213  78  10  787
1477482654.514:  -2075  78  10  787
1477482654.514:  -1771  78  10  787
1477482654.516:  -1455  78  10  787
1477482654.517:  -1206  78  10  787
1477482654.518:  -1002  78  10  787
1477482654.518:   -760  78  10  787
1477482654.518:   -427  78  10  787
1477482654.518:    -27  78  10  787
1477482654.518:    380  78  10  787
1477482654.520:    748  78  10  787
1477482654.521:   1049  78  10  787
1477482654.528:   1269  78  10  787
1477482654.543:   1397  78  10  787
1477482654.543:   1449  78  10  787
1477482654.543:   1458  78  10  787
1477482654.543:   1462  78  10  787
1477482654.544:   1481  78  10  787
1477482654.544:   1520  78  10  787
1477482654.544:   1584  78  10  787
1477482654.544:   1676  78  10  787
1477482654.544:   1767  78  10  787
1477482654.545:   1808  78  10  787
1477482654.545:   1794  78  10  787
1477482654.547:   1798  78  10  787
1477482654.549:   1931  78  10  787
1477482654.551:   2250  78  10  787
1477482654.552:   2707  78  10  787
1477482654.559:   3181  78  10  787
1477482654.560:   3556  78  10  787
1477482654.560:   3814  78  10  787
1477482654.568:   4012  78  10  787
1477482654.568:   4201  78  10  787
1477482654.618:   4326  78  10  787
1477482654.619:   4242  78  10  787
1477482654.619:   3855  78  10  787
1477482654.619:   3275  78  10  787
1477482654.619:   2786  78  10  787
1477482654.619:   2587  78  10  787
1477482654.620:   2586  78  10  787
1477482654.620:   2514  78  10  787
1477482654.620:   2252  78  10  787
1477482654.620:   2012  78  10  787
1477482654.621:   2106  78  10  787
1477482654.621:   2584  78  10  787
1477482654.621:   3153  78  10  787
1477482654.621:   3509  78  10  787
1477482654.622:   3672  78  10  784
1477482654.622:   3925  78  10  784
1477482654.622:   4459  78  10  784
1477482654.622:   5160  78  10  784
1477482654.623:   5770  78  10  784
1477482654.623:   6132  78  10  784
1477482654.623:   6273  78  10  784
1477482654.623:   6273  78  10  784
1477482654.624:   6149  78  10  784
1477482654.624:   5895  78  10  784
1477482654.624:   5568  78  10  784
1477482654.624:   5244  78  10  784
1477482654.625:   4931  78  10  784
1477482654.625:   4583  78  10  784
1477482654.625:   4210  78  10  784
1477482654.625:   3909  78  10  784
1477482654.630:   3772  78  10  784
1477482654.631:   3788  78  10  784
1477482654.632:   3850  78  10  784
1477482654.632:   3871  78  10  784
1477482654.633:   3841  78  10  784
1477482654.634:   3774  78  10  784
1477482654.634:   3654  78  10  784
1477482654.641:   3462  78  10  784
1477482654.649:   3235  78  10  784
1477482654.650:   3038  78  10  784
1477482654.650:   2883  78  10  784
1477482654.650:   2714  78  10  784
1477482654.651:   2478  78  10  784
1477482654.651:   2207  78  10  784
1477482654.651:   2013  78  10  784
1477482654.655:   1978  78  10  784
1477482654.656:   2076  78  10  784
1477482654.658:   2212  78  10  784
1477482654.658:   2338  78  10  784
1477482654.661:   2481  78  10  784
1477482654.662:   2669  78  10  784
1477482654.667:   2855  78  10  784
1477482654.682:   2939  78  10  784
1477482654.683:   2862  78  10  784
1477482654.683:   2684  78  10  784
1477482654.684:   2522  78  10  784
1477482654.684:   2462  78  10  784
1477482654.684:   2488  78  10  784
1477482654.684:   2523  78  10  784
1477482654.685:   2499  78  10  784
1477482654.685:   2398  78  10  784
1477482654.686:   2251  78  10  784
1477482654.686:   2117  78  10  784
1477482654.689:   2041  78  10  784
1477482654.689:   2019  78  10  784
1477482654.695:   2001  78  10  784
1477482654.703:   1934  78  10  784
1477482654.704:   1805  78  10  784
1477482654.704:   1665  78  10  784
1477482654.705:   1570  78  10  784
1477482654.705:   1518  78  10  784
1477482654.707:   1449  78  10  784
1477482654.707:   1315  78  10  784
1477482654.709:   1134  78  10  784
1477482654.709:    974  78  10  784
1477482654.714:    908  78  10  784
1477482654.714:    957  78  10  784
1477482654.716:   1090  78  10  784
1477482654.718:   1248  78  10  784
1477482654.722:   1398  78  10  784
1477482654.723:   1526  78  10  784
1477482654.724:   1619  78  10  784
1477482654.725:   1656  78  10  784
1477482654.729:   1620  78  10  784
1477482654.729:   1529  78  10  784
1477482654.732:   1445  78  10  784
1477482654.733:   1419  78  10  784
1477482654.735:   1444  78  10  784
1477482654.747:   1455  78  10  784
1477482654.747:   1405  78  10  784
1477482654.747:   1299  78  10  784
1477482654.747:   1189  78  10  784
1477482654.747:   1115  78  10  784
1477482654.750:   1072  78  10  784
1477482654.750:   1018  78  10  784
1477482654.752:    943  78  10  784
1477482654.753:    875  78  10  784
1477482654.754:    860  78  10  784
1477482654.759:    911  78  10  784
1477482654.759:   1001  78  10  784
1477482654.770:   1068  78  10  784
1477482654.771:   1061  78  10  784
1477482654.771:    968  78  10  784
1477482654.772:    829  78  10  784
1477482654.773:    694  78  10  784
1477482654.774:    590  78  10  784
1477482654.775:    517  78  10  784
1477482654.776:    464  78  10  784
1477482654.777:    425  78  10  784
1477482654.779:    406  78  10  784
1477482654.784:    399  78  10  784
1477482654.784:    377  78  10  784
1477482654.785:    320  78  10  784
1477482654.787:    237  78  10  784
1477482654.792:    150  78  10  784
1477482654.793:     75  78  10  784
1477482654.809:     24  78  10  784
1477482654.810:      5  78  10  784
1477482654.810:     22  78  10  784
1477482654.811:     73  78  10  784
1477482654.812:    135  78  10  784
1477482654.813:    178  78  10  784
1477482654.813:    179  78  10  784
1477482654.814:    139  78  10  784
1477482654.814:     64  78  10  784
1477482654.817:    -25  78  10  784
1477482654.826:    -96  78  10  784
1477482654.826:   -114  78  10  784
1477482654.826:    -86  78  10  784
1477482654.826:    -38  78  10  784
1477482654.826:     11  78  10  784
1477482654.827:     64  78  10  784
1477482654.827:    118  78  10  784
1477482654.827:    149  78  10  784
1477482654.830:    130  78  10  784
1477482654.833:     75  78  10  784
1477482654.833:     49  78  10  784
1477482654.834:     98  78  10  784
1477482654.836:    184  78  10  784
1477482654.837:    230  78  10  784
1477482654.840:    217  78  10  784
1477482654.842:    202  78  10  784
1477482654.847:    241  78  10  784
1477482654.847:    312  78  10  784
1477482654.849:    342  78  10  784
1477482654.851:    306  78  10  784
1477482654.852:    272  78  10  784
1477482654.853:    321  78  10  784
1477482654.857:    458  78  10  784
1477482654.860:    612  78  10  784
1477482654.861:    731  78  10  784
1477482654.862:    810  78  10  784
1477482654.864:    862  78  10  784
1477482654.865:    884  78  10  784
1477482654.879:    862  78  10  784
1477482654.879:    802  78  10  784
1477482654.880:    740  78  10  784
1477482654.880:    707  78  10  784
1477482654.880:    705  78  10  784
1477482654.881:    721  78  10  784
1477482654.881:    753  78  10  784
1477482654.883:    789  78  10  784
1477482654.883:    806  78  10  784
1477482654.888:    777  78  10  784
1477482654.906:    705  78  10  784
1477482654.906:    612  78  10  784
1477482654.907:    521  78  10  784
1477482654.907:    449  78  10  784
1477482654.907:    402  78  10  784
1477482654.909:    371  78  10  784
1477482654.909:    344  78  10  784
1477482654.909:    296  78  10  784
1477482654.910:    215  78  10  784
1477482654.911:    117  78  10  784
1477482654.911:     40  78  10  784
1477482654.911:      1  78  10  784
1477482654.912:     -7  78  10  784
1477482654.915:      8  78  10  784
1477482654.916:     56  78  10  784
1477482654.917:    150  78  10  784
1477482654.918:    283  78  10  784
1477482654.919:    419  78  10  784
1477482654.923:    516  78  10  784
1477482655.021:    550  78  10  784
1477482655.021:    531  78  10  784
1477482655.021:    476  78  10  784
1477482655.021:    401  78  10  784
1477482655.022:    336  78  10  784
1477482655.022:    321  78  10  784
1477482655.022:    377  78  10  784
1477482655.022:    484  78  10  784
1477482655.022:    604  78  10  784
1477482655.022:    707  78  10  784
1477482655.022:    798  78  10  784
1477482655.023:    893  78  10  784
1477482655.023:    980  78  10  784
1477482655.023:   1028  78  10  784
1477482655.023:   1037  78  10  784
1477482655.023:   1062  78  10  784
1477482655.023:   1158  78  10  784
1477482655.023:   1312  78  10  784
1477482655.023:   1468  78  10  784
1477482655.025:   1585  78  10  784
1477482655.025:   1693  78  10  784
1477482655.026:   1841  78  10  784
1477482655.026:   2032  78  10  784
1477482655.026:   2228  78  10  784
1477482655.026:   2445  78  10  784
1477482655.026:   2757  78  10  784
1477482655.026:   3191  78  10  784
1477482655.026:   3637  78  10  784
1477482655.026:   3921  78  10  784
1477482655.027:   3973  78  10  784
1477482655.027:   3893  78  10  784
1477482655.027:   3816  78  10  784
1477482655.027:   3747  78  10  784
1477482655.027:   3563  78  10  784
1477482655.027:   3203  78  10  784
1477482655.027:   2779  78  10  784
1477482655.028:   2479  78  10  784
1477482655.028:   2387  78  10  784
1477482655.028:   2431  78  10  784
1477482655.028:   2477  78  10  784
1477482655.029:   2465  78  10  784
1477482655.029:   2399  78  10  784
1477482655.029:   2286  78  10  784
1477482655.029:   2125  78  10  784
1477482655.029:   1934  78  10  784
1477482655.029:   1774  78  10  784
1477482655.029:   1692  78  10  784
1477482655.030:   1673  78  10  784
1477482655.030:   1680  78  10  784
1477482655.050:   1740  78  10  784
1477482655.050:   1921  78  10  784
1477482655.051:   2218  78  10  784
1477482655.051:   2489  78  10  784
1477482655.051:   2561  78  10  784
1477482655.052:   2404  78  10  784
1477482655.052:   2188  78  10  784
1477482655.052:   2108  78  10  784
1477482655.052:   2174  78  10  784
1477482655.053:   2219  78  10  784
1477482655.053:   2104  78  10  784
1477482655.053:   1877  78  10  784
1477482655.053:   1729  78  10  784
1477482655.054:   1785  78  10  784
1477482655.054:   1971  78  10  784
1477482655.054:   2107  78  10  784
1477482655.055:   2111  78  10  784
1477482655.055:   2055  78  10  784
1477482655.057:   2028  78  10  784
1477482655.057:   2004  78  10  784
1477482655.059:   1863  78  10  784
1477482655.061:   1548  78  10  784
1477482655.073:   1161  78  10  784
1477482655.073:    855  78  10  784
1477482655.074:    668  78  10  784
1477482655.074:    460  78  10  784
1477482655.074:     99  78  10  784
1477482655.074:   -360  78  10  784
1477482655.075:   -709  78  10  784
1477482655.076:   -806  78  10  784
1477482655.079:   -723  78  10  784
1477482655.083:   -672  78  10  784
1477482655.085:   -777  78  10  784
1477482655.086:   -972  78  10  784
1477482655.088:  -1114  78  10  784
1477482655.089:  -1147  78  10  784
1477482655.093:  -1125  78  10  784
1477482655.093:  -1102  78  10  784
1477482655.094:  -1070  78  10  784
1477482655.099:  -1018  78  10  784
1477482655.100:   -990  78  10  784
1477482655.100:  -1070  78  10  784
1477482655.117:  -1271  78  10  784
1477482655.117:  -1493  78  10  784
1477482655.118:  -1621  78  10  784
1477482655.119:  -1635  78  10  784
1477482655.120:  -1598  78  10  784
1477482655.120:  -1559  78  10  784
1477482655.121:  -1475  78  10  784
1477482655.122:  -1285  78  10  784
1477482655.123:   -986  78  10  784
1477482655.128:   -665  78  10  784
1477482655.134:   -440  78  10  784
1477482655.135:   -368  78  10  784
1477482655.135:   -422  78  10  784
1477482655.135:   -540  78  10  784
1477482655.135:   -688  78  10  784
1477482655.135:   -824  78  10  784
1477482655.135:   -922  78  10  784
1477482655.135:  -1020  78  10  784
1477482655.140:  -1176  78  10  784
1477482655.141:  -1380  78  10  784
1477482655.145:  -1551  78  10  784
1477482655.145:  -1636  78  10  784
1477482655.154:  -1715  78  10  784
1477482655.154:  -1937  78  10  784
1477482655.154:  -2311  78  10  784
1477482655.154:  -2653  78  10  784
1477482655.154:  -2836  78  10  784
1477482655.156:  -3019  78  10  784
1477482655.159:  -3493  78  10  784
1477482655.162:  -4270  78  10  784
1477482655.163:  -4949  78  10  784
1477482655.164:  -5086  78  10  784
1477482655.166:  -4689  78  10  784
1477482655.167:  -4188  78  10  784
1477482655.171:  -3909  78  10  784
1477482655.171:  -3697  78  10  784
1477482655.173:  -3153  78  10  784
1477482655.175:  -2162  78  10  784
1477482655.194:  -1046  78  10  784
1477482655.194:   -212  78  10  784
1477482655.195:    215  78  10  784
1477482655.195:    370  78  10  784
1477482655.195:    378  78  10  784
1477482655.195:    253  78  10  784
1477482655.196:     28  78  10  784
1477482655.196:   -143  78  10  784
1477482655.196:   -110  78  10  784
1477482655.196:    121  78  10  784
1477482655.197:    430  78  10  784
1477482655.198:    751  78  10  784
1477482655.202:   1113  78  10  784
1477482655.203:   1540  78  10  784
1477482655.205:   1957  78  10  784
1477482655.210:   2263  78  10  784
1477482655.210:   2450  82  11  761
1477482655.211:   2556  82  11  761
1477482655.212:   2571  82  11  761
1477482655.215:   2442  82  11  761
1477482655.216:   2160  82  11  761
1477482655.223:   1831  82  11  761
1477482655.230:   1574  82  11  761
1477482655.230:   1404  82  11  761
1477482655.231:   1241  82  11  761
1477482655.231:   1015  82  11  761
1477482655.231:    741  82  11  761
1477482655.231:    488  82  11  761
1477482655.233:    309  82  11  761
1477482655.236:    225  82  11  761
1477482655.236:    244  82  11  761
1477482655.239:    363  82  11  761
1477482655.240:    533  82  11  761
1477482655.242:    657  82  11  761
1477482655.251:    676  82  11  761
1477482655.251:    619  82  11  761
1477482655.252:    557  82  11  761
1477482655.252:    523  82  11  761
1477482655.255:    519  82  11  761
1477482655.256:    554  82  11  761
1477482655.257:    660  82  11  761
1477482655.258:    842  82  11  761
1477482655.263:   1044  82  11  761
1477482655.263:   1173  82  11  761
1477482655.269:   1195  82  11  761
1477482655.292:   1158  82  11  761
1477482655.293:   1122  82  11  761
1477482655.295:   1096  82  11  761
1477482655.305:   1065  82  11  761
1477482655.307:   1024  82  11  761
1477482655.309:    988  82  11  761
1477482655.309:    964  82  11  761
1477482655.310:    954  82  11  761
1477482655.310:    955  82  11  761
1477482655.310:    975  82  11  761
1477482655.310:   1012  82  11  761
1477482655.311:   1031  82  11  761
1477482655.311:    995  82  11  761
1477482655.311:    918  82  11  761
1477482655.312:    860  82  11  761
1477482655.312:    869  82  11  761
1477482655.312:    926  82  11  761
1477482655.312:    989  82  11  761
1477482655.313:   1028  82  11  761
1477482655.313:   1041  82  11  761
1477482655.313:   1034  82  11  761
1477482655.313:   1005  82  11  761
1477482655.313:    954  82  11  761
1477482655.314:    915  82  11  761
1477482655.314:    926  82  11  761
1477482655.314:    988  82  11  761
1477482655.317:   1054  82  11  761
1477482655.317:   1094  82  11  761
1477482655.322:   1112  82  11  761
1477482655.322:   1120  82  11  761
1477482655.325:   1112  82  11  761
1477482655.327:   1067  82  11  761
1477482655.328:    986  82  11  761
1477482655.330:    908  82  11  761
1477482655.332:    879  82  11  761
1477482655.348:    907  82  11  761
1477482655.349:    962  82  11  761
1477482655.350:   1029  82  11  761
1477482655.352:   1104  82  11  761
1477482655.353:   1175  82  11  761
1477482655.354:   1212  82  11  761
1477482655.354:   1200  82  11  761
1477482655.358:   1155  82  11  761
1477482655.358:   1110  82  11  761
1477482655.360:   1091  82  11  761
1477482655.371:   1104  82  11  761
1477482655.371:   1147  82  11  761
1477482655.372:   1221  82  11  761
1477482655.372:   1313  82  11  761
1477482655.372:   1381  82  11  761
1477482655.372:   1394  82  11  761
1477482655.372:   1360  82  11  761
1477482655.372:   1315  82  11  761
1477482655.372:   1282  82  11  761
1477482655.373:   1261  82  11  761
1477482655.373:   1251  82  11  761
1477482655.375:   1270  82  11  761
1477482655.376:   1329  82  11  761
1477482655.379:   1417  82  11  761
1477482655.383:   1487  82  11  761
1477482655.388:   1503  82  11  761
1477482655.394:   1473  82  11  761
1477482655.395:   1423  82  11  761
1477482655.395:   1370  82  11  761
1477482655.397:   1326  82  11  761
1477482655.397:   1303  82  11  761
1477482655.400:   1315  82  11  761
1477482655.400:   1357  82  11  761
1477482655.400:   1409  82  11  761
1477482655.402:   1441  82  11  761
1477482655.404:   1440  82  11  761
1477482655.405:   1417  82  11  761
1477482655.410:   1400  82  11  761
1477482655.423:   1400  82  11  761
1477482655.424:   1415  82  11  761
1477482655.424:   1439  82  11  761
1477482655.425:   1477  82  11  761
1477482655.425:   1538  82  11  761
1477482655.425:   1639  82  11  761
1477482655.426:   1772  82  11  761
1477482655.426:   1898  82  11  761
1477482655.429:   1978  82  11  761
1477482655.429:   2000  82  11  761
1477482655.429:   1983  82  11  761
1477482655.430:   1964  82  11  761
1477482655.440:   1967  82  11  761
1477482655.441:   2006  82  11  761
1477482655.441:   2076  82  11  761
1477482655.442:   2167  82  11  761
1477482655.442:   2253  82  11  761
1477482655.443:   2292  82  11  761
1477482655.444:   2265  82  11  761
1477482655.445:   2196  82  11  761
1477482655.455:   2126  82  11  761
1477482655.458:   2085  82  11  761
1477482655.459:   2069  82  11  761
1477482655.459:   2058  82  11  761
1477482655.460:   2052  82  11  761
1477482655.461:   2076  82  11  761
1477482655.477:   2150  82  11  761
1477482655.479:   2249  82  11  761
1477482655.480:   2313  82  11  761
1477482655.481:   2302  82  11  761
1477482655.481:   2225  82  11  761
1477482655.482:   2130  82  11  761
1477482655.483:   2063  82  11  761
1477482655.484:   2036  82  11  761
1477482655.485:   2023  82  11  761
1477482655.487:   2003  82  11  761
1477482655.488:   1980  82  11  761
1477482655.489:   1964  82  11  761
1477482655.489:   1955  82  11  761
1477482655.489:   1925  82  11  761
1477482655.489:   1850  82  11  761
1477482655.489:   1734  82  11  761
1477482655.494:   1624  82  11  761
1477482655.496:   1572  82  11  761
1477482655.509:   1594  82  11  761
1477482655.509:   1664  82  11  761
1477482655.509:   1750  82  11  761
1477482655.510:   1824  82  11  761
1477482655.510:   1870  82  11  761
1477482655.511:   1869  82  11  761
1477482655.579:   1801  82  11  761
1477482655.579:   1664  82  11  761
1477482655.579:   1503  82  11  761
1477482655.579:   1386  82  11  761
1477482655.579:   1344  82  11  761
1477482655.580:   1337  82  11  761
1477482655.580:   1318  82  11  761
1477482655.580:   1276  82  11  761
1477482655.580:   1249  82  11  761
1477482655.581:   1268  82  11  761
1477482655.581:   1286  82  11  761
1477482655.581:   1213  82  11  761
1477482655.581:   1029  82  11  761
1477482655.581:    832  82  11  761
1477482655.582:    756  82  11  761
1477482655.582:    818  82  11  761
1477482655.582:    917  82  11  761
1477482655.582:    939  82  11  761
1477482655.583:    880  82  11  761
1477482655.583:    833  82  11  761
1477482655.584:    867  82  11  761
1477482655.584:    940  82  11  761
1477482655.584:    972  82  11  761
1477482655.584:    948  82  11  761
1477482655.584:    936  82  11  761
1477482655.585:    983  82  11  761
1477482655.585:   1075  82  11  761
1477482655.585:   1158  82  11  761
1477482655.585:   1196  82  11  761
1477482655.585:   1197  82  11  761
1477482655.586:   1165  82  11  761
1477482655.586:   1087  82  11  761
1477482655.586:    977  82  11  761
1477482655.586:    899  82  11  761
1477482655.586:    901  82  11  761
1477482655.586:    957  82  11  761
1477482655.587:    994  82  11  761
1477482655.587:    984  82  11  761
1477482655.587:    964  82  11  761
1477482655.587:    970  82  11  761
1477482655.587:    964  82  11  761
1477482655.588:    881 101  13  705
1477482655.598:    728 101  13  705
1477482655.598:    606 101  13  705
1477482655.598:    592 101  13  705
1477482655.599:    649 101  13  705
1477482655.599:    683 101  13  705
1477482655.601:    669 101  13  705
1477482655.601:    668 101  13  705
1477482655.606:    719 101  13  705
1477482655.606:    768 101  13  705
1477482655.609:    734 101  13  705
1477482655.619:    623 101  13  705
1477482655.619:    546 101  13  705
1477482655.619:    591 101  13  705
1477482655.619:    722 101  13  705
1477482655.620:    842 101  13  705
1477482655.620:    909 101  13  705
1477482655.622:    961 101  13  705
1477482655.623:   1038 101  13  705
1477482655.624:   1116 101  13  705
1477482655.627:   1140 101  13  705
1477482655.629:   1088 101  13  705
1477482655.633:   1005 101  13  705
1477482655.643:    954 101  13  705
1477482655.643:    971 101  13  705
1477482655.643:   1029 101  13  705
1477482655.643:   1089 101  13  705
1477482655.643:   1122 101  13  705
1477482655.643:   1124 101  13  705
1477482655.644:   1113 101  13  705
1477482655.649:   1127 101  13  705
1477482655.649:   1174 101  13  705
1477482655.653:   1234 101  13  705
1477482655.662:   1273 101  13  705
1477482655.662:   1286 101  13  705
1477482655.663:   1307 101  13  705
1477482655.663:   1397 101  13  705
1477482655.663:   1568 101  13  705
1477482655.663:   1748 101  13  705
1477482655.666:   1832 101  13  705
1477482655.666:   1791 101  13  705
1477482655.668:   1700 101  13  705
1477482655.669:   1675 101  13  705
1477482655.672:   1766 101  13  705
1477482655.674:   1905 101  13  705
1477482655.675:   1971 101  13  705
1477482655.680:   1917 101  13  705
1477482655.692:   1797 101  13  705
1477482655.693:   1697 101  13  705
1477482655.693:   1647 101  13  705
1477482655.694:   1603 101  13  705
1477482655.694:   1497 101  13  705
1477482655.694:   1297 101  13  705
1477482655.695:   1059 101  13  705
1477482655.696:    898 101  13  705
1477482655.697:    908 101  13  705
1477482655.698:   1071 101  13  705
1477482655.699:   1262 101  13  705
1477482655.702:   1348 101  13  705
1477482655.711:   1306 101  13  705
1477482655.711:   1223 101  13  705
1477482655.711:   1191 101  13  705
1477482655.711:   1206 101  13  705
1477482655.712:   1210 101  13  705
1477482655.713:   1177 101  13  705
1477482655.716:   1136 101  13  705
1477482655.718:   1117 101  13  705
1477482655.721:   1106 101  13  705
1477482655.722:   1077 101  13  705
1477482655.733:   1045 101  13  705
1477482655.733:   1037 101  13  705
1477482655.734:   1030 101  13  705
1477482655.734:    957 101  13  705
1477482655.735:    798 101  13  705
1477482655.736:    628 101  13  705
1477482655.738:    548 101  13  705
1477482655.738:    582 101  13  705
1477482655.739:    671 101  13  705
1477482655.741:    728 101  13  705
1477482655.753:    709 101  13  705
1477482655.753:    619 101  13  705
1477482655.754:    483 101  13  705
1477482655.754:    330 101  13  705
1477482655.754:    202 101  13  705
1477482655.755:    141 101  13  705
1477482655.756:    157 101  13  705
1477482655.757:    204 101  13  705
1477482655.758:    245 101  13  705
1477482655.763:    279 101  13  705
1477482655.772:    326 101  13  705
1477482655.772:    373 101  13  705
1477482655.772:    366 101  13  705
1477482655.773:    261 101  13  705
1477482655.773:     93 101  13  705
1477482655.773:    -49 101  13  705
1477482655.776:   -109 101  13  705
1477482655.777:   -143 101  13  705
1477482655.779:   -263 101  13  705
1477482655.779:   -530 101  13  705
1477482655.791:   -896 101  13  705
1477482655.791:  -1247 101  13  705
1477482655.791:  -1488 101  13  705
1477482655.792:  -1603 101  13  705
1477482655.792:  -1635 101  13  705
1477482655.792:  -1615 101  13  705
1477482655.793:  -1525 101  13  705
1477482655.799:  -1328 101  13  705
1477482655.799:  -1011 101  13  705
1477482655.801:   -628 101  13  705
1477482655.804:   -284 101  13  705
1477482655.804:    -58 101  13  705
1477482655.806:     68 101  13  705
1477482655.807:    182 101  13  705
1477482655.817:    352 101  13  705
1477482655.817:    566 101  13  705
1477482655.818:    764 101  13  705
1477482655.818:    919 101  13  705
1477482655.841:   1056 101  13  705
1477482655.841:   1193 101  13  705
1477482655.842:   1269 101  13  705
1477482655.845:   1209 101  13  705
1477482655.845:   1022 101  13  705
1477482655.845:    814 101  13  705
1477482655.845:    690 101  13  705
1477482655.845:    670 101  13  705
1477482655.846:    705 101  13  705
1477482655.846:    766 101  13  705
1477482655.846:    852 101  13  705
1477482655.847:    957 101  13  705
1477482655.858:   1016 101  13  705
1477482655.858:    972 101  13  705
1477482655.859:    850 101  13  705
1477482655.859:    743 101  13  705
1477482655.859:    713 101  13  705
1477482655.859:    748 101  13  705
1477482655.859:    791 101  13  705
1477482655.859:    793 101  13  705
1477482655.859:    740 101  13  705
1477482655.860:    643 101  13  705
1477482655.861:    521 101  13  705
1477482655.864:    395 101  13  705
1477482655.865:    261 101  13  705
1477482655.866:    106 101  13  705
1477482655.873:    -58 101  13  705
1477482655.874:   -162 101  13  705
1477482655.875:   -141 101  13  705
1477482655.876:      4 101  13  705
1477482655.878:    191 101  13  705
1477482655.879:    357 101  13  705
1477482655.880:    537 101  13  705
1477482655.882:    793 101  13  705
1477482655.885:   1099 101  13  705
1477482655.886:   1336 101  13  705
1477482655.890:   1416 101  13  705
1477482656.089:   1409 101  13  705
1477482656.101:   1479 101  13  705
1477482656.101:   1691 101  13  705
1477482656.101:   1908 101  13  705
1477482656.101:   1918 101  13  705
1477482656.102:   1643 101  13  705
1477482656.102:   1220 101  13  705
1477482656.102:    878 101  13  705
1477482656.102:    766 101  13  705
1477482656.102:    868 101  13  705
1477482656.102:   1065 101  13  705
1477482656.102:   1265 101  13  705
1477482656.102:   1466 101  13  705
1477482656.103:   1696 101  13  705
1477482656.103:   1947 101  13  705
1477482656.103:   2136 101  13  705
1477482656.103:   2162 101  13  705
1477482656.103:   1986 101  13  705
1477482656.103:   1651 101  13  705
1477482656.103:   1244 101  13  705
1477482656.104:    854 101  13  705
1477482656.104:    555 101  13  705
1477482656.104:    387 101  13  705
1477482656.104:    326 101  13  705
1477482656.104:    295 101  13  705
1477482656.104:    236 101  13  705
1477482656.104:    158 123  16  655
1477482656.105:    102 123  16  655
1477482656.105:     74 123  16  655
1477482656.105:     39 123  16  655
1477482656.105:     -9 123  16  655
1477482656.105:      2 123  16  655
1477482656.106:    125 123  16  655
1477482656.106:    307 123  16  655
1477482656.106:    423 123  16  655
1477482656.106:    420 123  16  655
1477482656.106:    365 123  16  655
1477482656.106:    338 123  16  655
1477482656.106:    304 123  16  655
1477482656.107:    166 123  16  655
1477482656.107:    -79 123  16  655
1477482656.107:   -295 123  16  655
1477482656.107:   -357 123  16  655
1477482656.107:   -302 123  16  655
1477482656.108:   -308 123  16  655
1477482656.108:   -498 123  16  655
1477482656.108:   -812 123  16  655
1477482656.108:  -1075 123  16  655
1477482656.109:  -1161 123  16  655
1477482656.109:  -1076 123  16  655
1477482656.109:   -890 123  16  655
1477482656.109:   -657 123  16  655
1477482656.109:   -372 123  16  655
1477482656.110:    -10 123  16  655
1477482656.110:    416 123  16  655
1477482656.110:    835 123  16  655
1477482656.110:   1158 123  16  655
1477482656.110:   1321 123  16  655
1477482656.110:   1326 123  16  655
1477482656.110:   1227 123  16  655
1477482656.111:   1080 123  16  655
1477482656.111:    904 123  16  655
1477482656.111:    705 123  16  655
1477482656.111:    493 123  16  655
1477482656.111:    286 123  16  655
1477482656.111:     84 123  16  655
1477482656.111:   -121 123  16  655
1477482656.112:   -326 123  16  655
1477482656.112:   -509 123  16  655
1477482656.112:   -645 123  16  655
1477482656.112:   -727 123  16  655
1477482656.112:   -757 123  16  655
1477482656.113:   -719 123  16  655
1477482656.113:   -595 123  16  655
1477482656.113:   -403 123  16  655
1477482656.113:   -209 123  16  655
1477482656.114:    -75 123  16  655
1477482656.114:    -19 123  16  655
1477482656.114:     -2 123  16  655
1477482656.114:     27 123  16  655
1477482656.114:     85 123  16  655
1477482656.114:    162 123  16  655
1477482656.114:    252 123  16  655
1477482656.115:    358 123  16  655
1477482656.115:    461 123  16  655
1477482656.115:    523 123  16  655
1477482656.115:    520 123  16  655
1477482656.115:    463 123  16  655
1477482656.115:    391 123  16  655
1477482656.115:    333 123  16  655
1477482656.116:    272 123  16  655
1477482656.116:    170 123  16  655
1477482656.116:     30 123  16  655
1477482656.116:    -96 123  16  655
1477482656.116:   -138 123  16  655
1477482656.116:    -91 123  16  655
1477482656.116:    -13 123  16  655
1477482656.117:     34 123  16  655
1477482656.117:     38 123  16  655
1477482656.117:     39 123  16  655
1477482656.117:     65 123  16  655
1477482656.117:     89 123  16  655
1477482656.117:     73 123  16  655
1477482656.118:     29 123  16  655
1477482656.118:     13 123  16  655
1477482656.118:     61 123  16  655
1477482656.118:    140 123  16  655
1477482656.118:    175 123  16  655
1477482656.119:    127 123  16  655
1477482656.119:     22 123  16  655
1477482656.119:    -86 123  16  655
1477482656.119:   -160 123  16  655
1477482656.119:   -186 123  16  655
1477482656.119:   -166 123  16  655
1477482656.119:   -110 123  16  655
1477482656.120:    -47 123  16  655
1477482656.120:    -11 123  16  655
1477482656.120:    -11 123  16  655
1477482656.122:    -27 123  16  655
1477482656.124:    -27 123  16  655
1477482656.125:     -2 123  16  655
1477482656.128:     20 123  16  655
1477482656.132:      9 123  16  655
1477482656.133:    -32 123  16  655
1477482656.134:    -66 123  16  655
1477482656.135:    -51 123  16  655
1477482656.136:      9 123  16  655
1477482656.139:     80 123  16  655
1477482656.142:    120 123  16  655
1477482656.146:    124 123  16  655
1477482656.146:    121 123  16  655
1477482656.160:    125 123  16  655
1477482656.161:    127 123  16  655
1477482656.161:    119 123  16  655
1477482656.162:    118 123  16  655
1477482656.163:    158 123  16  655
1477482656.164:    232 123  16  655
1477482656.165:    281 123  16  655
1477482656.167:    245 123  16  655
1477482656.179:    149 123  16  655
1477482656.179:     83 123  16  655
1477482656.180:    105 123  16  655
1477482656.180:    175 123  16  655
1477482656.180:    211 123  16  655
1477482656.180:    188 123  16  655
1477482656.180:    167 123  16  655
1477482656.180:    215 123  16  655
1477482656.181:    323 123  16  655
1477482656.181:    409 123  16  655
1477482656.184:    416 123  16  655
1477482656.190:    378 123  16  655
1477482656.190:    370 123  16  655
1477482656.190:    416 123  16  655
1477482656.191:    471 123  16  655
1477482656.192:    490 123  16  655
1477482656.198:    502 123  16  655
1477482656.199:    576 123  16  655
1477482656.208:    732 123  16  655
1477482656.208:    907 123  16  655
1477482656.208:   1022 123  16  655
1477482656.208:   1077 123  16  655
1477482656.209:   1147 123  16  655
1477482656.212:   1272 123  16  655
1477482656.212:   1404 123  16  655
1477482656.215:   1455 123  16  655
1477482656.216:   1414 123  16  655
1477482656.217:   1358 123  16  655
1477482656.218:   1357 123  16  655
1477482656.220:   1390 123  16  655
1477482656.222:   1382 123  16  655
1477482656.224:   1303 123  16  655
1477482656.234:   1210 123  16  655
1477482656.234:   1168 123  16  655
1477482656.235:   1176 123  16  655
1477482656.235:   1189 123  16  655
1477482656.235:   1185 123  16  655
1477482656.235:   1187 123  16  655
1477482656.238:   1225 123  16  655
1477482656.242:   1290 123  16  655
1477482656.243:   1342 123  16  655
1477482656.244:   1356 123  16  655
1477482656.246:   1342 123  16  655
1477482656.247:   1317 123  16  655
1477482656.252:   1283 123  16  655
1477482656.252:   1241 123  16  655
1477482656.256:   1205 123  16  655
1477482656.256:   1193 123  16  655
1477482656.258:   1206 123  16  655
1477482656.259:   1226 123  16  655
1477482656.261:   1232 123  16  655
1477482656.263:   1222 123  16  655
1477482656.266:   1205 123  16  655
1477482656.270:   1174 123  16  655
1477482656.289:   1115 123  16  655
1477482656.289:   1038 123  16  655
1477482656.289:    966 123  16  655
1477482656.289:    925 123  16  655
1477482656.290:    913 123  16  655
1477482656.290:    912 123  16  655
1477482656.290:    900 123  16  655
1477482656.290:    871 123  16  655
1477482656.290:    832 123  16  655
1477482656.290:    783 123  16  655
1477482656.290:    721 123  16  655
1477482656.290:    655 123  16  655
1477482656.293:    594 123  16  655
1477482656.297:    541 123  16  655
1477482656.297:    495 123  16  655
1477482656.299:    465 123  16  655
1477482656.300:    452 123  16  655
1477482656.303:    444 123  16  655
1477482656.304:    417 123  16  655
1477482656.307:    362 123  16  655
1477482656.312:    291 123  16  655
1477482656.312:    239 123  16  655
1477482656.313:    227 123  16  655
1477482656.314:    248 123  16  655
1477482656.315:    282 123  16  655
1477482656.318:    321 123  16  655
1477482656.332:    354 123  16  655
1477482656.332:    375 123  16  655
1477482656.333:    379 123  16  655
1477482656.333:    364 123  16  655
1477482656.333:    324 123  16  655
1477482656.333:    258 123  16  655
1477482656.333:    193 123  16  655
1477482656.334:    169 123  16  655
1477482656.335:    200 123  16  655
1477482656.338:    251 123  16  655
1477482656.339:    277 123  16  655
1477482656.343:    270 123  16  655
1477482656.353:    264 123  16  655
1477482656.353:    290 123  16  655
1477482656.353:    324 123  16  655
1477482656.353:    320 123  16  655
1477482656.354:    279 123  16  655
1477482656.354:    245 123  16  655
1477482656.355:    250 123  16  655
1477482656.357:    277 123  16  655
1477482656.362:    289 123  16  655
1477482656.362:    277 123  16  655
1477482656.364:    260 123  16  655
1477482656.367:    251 123  16  655
1477482656.368:    237 123  16  655
1477482656.370:    210 123  16  655
1477482656.371:    186 123  16  655
1477482656.373:    190 123  16  655
1477482656.377:    220 123  16  655
1477482656.377:    251 123  16  655
1477482656.379:    271 123  16  655
1477482656.380:    289 123  16  655
1477482656.384:    313 123  16  655
1477482656.385:    326 123  16  655
1477482656.386:    311 123  16  655
1477482656.389:    270 123  16  655
1477482656.403:    234 123  16  655
1477482656.404:    232 123  16  655
1477482656.404:    271 123  16  655
1477482656.404:    327 123  16  655
1477482656.404:    376 123  16  655
1477482656.404:    407 123  16  655
1477482656.405:    425 123  16  655
1477482656.467:    449 123  16  655
1477482656.467:    495 123  16  655
1477482656.467:    516 123  16  655
1477482656.467:    465 123  16  655
1477482656.467:    372 123  16  655
1477482656.468:    333 123  16  655
1477482656.468:    406 123  16  655
1477482656.468:    526 123  16  655
1477482656.468:    572 123  16  655
1477482656.468:    527 123  16  655
1477482656.468:    499 123  16  655
1477482656.468:    558 123  16  655
1477482656.469:    609 123  16  655
1477482656.469:    545 123  16  655
1477482656.469:    447 123  16  655
1477482656.469:    529 123  16  655
1477482656.469:    852 123  16  655
1477482656.469:   1197 123  16  655
1477482656.470:   1305 123  16  655
1477482656.470:   1185 123  16  655
1477482656.470:   1088 123  16  655
1477482656.470:   1146 123  16  655
1477482656.470:   1193 123  16  655
1477482656.470:   1002 123  16  655
1477482656.470:    573 123  16  655
1477482656.471:     92 123  16  655
1477482656.471:   -336 123  16  655
1477482656.471:   -755 123  16  655
1477482656.471:  -1147 123  16  655
1477482656.471:  -1318 123  16  655
1477482656.471:  -1109 123  16  655
1477482656.472:   -666 123  16  655
1477482656.472:   -318 123  16  655
1477482656.472:   -185 123  16  655
1477482656.472:    -25 123  16  655
1477482656.473:    458 123  16  655
1477482656.478:   1225 123  16  655
1477482656.478:   1915 123  16  655
1477482656.482:   2211 123  16  655
1477482656.499:   2151 123  16  655
1477482656.499:   2001 123  16  655
1477482656.499:   1943 123  16  655
1477482656.500:   1942 123  16  655
1477482656.500:   1869 123  16  655
1477482656.500:   1698 123  16  655
1477482656.500:   1548 123  16  655
1477482656.500:   1573 123  16  655
1477482656.500:   1822 123  16  655
1477482656.501:   2215 123  16  655
1477482656.501:   2637 123  16  655
1477482656.503:   3017 123  16  655
1477482656.504:   3333 123  16  655
1477482656.508:   3561 123  16  655
1477482656.509:   3639 123  16  655
1477482656.510:   3523 123  16  655
1477482656.520:   3244 123  16  655
1477482656.520:   2891 123  16  655
1477482656.520:   2523 123  16  655
1477482656.521:   2154 123  16  655
1477482656.522:   1798 123  16  655
1477482656.522:   1489 123  16  655
1477482656.524:   1239 123  16  655
1477482656.525:    972 123  16  655
1477482656.528:    573 123  16  655
1477482656.530:     35 123  16  655
1477482656.533:   -497 123  16  655
1477482656.536:   -861 123  16  655
1477482656.536:  -1053 123  16  655
1477482656.538:  -1215 123  16  655
1477482656.539:  -1481 123  16  655
1477482656.541:  -1832 123  16  655
1477482656.550:  -2130 123  16  655
1477482656.570:  -2283 123  16  655
1477482656.579:  -2342 123  16  655
1477482656.579:  -2415 123  16  655
1477482656.579:  -2532 123  16  655
1477482656.579:  -2629 123  16  655
1477482656.579:  -2637 123  16  655
1477482656.579:  -2574 123  16  655
1477482656.580:  -2516 123  16  655
1477482656.580:  -2497 123  16  655
1477482656.580:  -2473 123  16  655
1477482656.580:  -2392 123  16  655
1477482656.580:  -2272 123  16  655
1477482656.580:  -2185 123  16  655
1477482656.580:  -2155 123  16  655
1477482656.581:  -2106 123  16  655
1477482656.581:  -1949 123  16  655
1477482656.581:  -1682 123  16  655
1477482656.581:  -1385 123  16  655
1477482656.583:  -1157 123  16  655
1477482656.584:  -1029 123  16  655
1477482656.585:   -956 123  16  655
1477482656.586:   -870 123  16  655
1477482656.593:   -732 123  16  655
1477482656.603:   -544 123  16  655
1477482656.603:   -355 123  16  655
1477482656.603:   -249 123  16  655
1477482656.604:   -299 123  16  655
1477482656.604:   -513 123  16  655
1477482656.604:   -847 123  16  655
1477482656.605:  -1225 123  16  655
1477482656.605:  -1588 123  16  655
1477482656.608:  -1899 123  16  655
1477482656.608:  -2137 123  16  655
1477482656.610:  -2298 123  16  655
1477482656.611:  -2378 123  16  655
1477482656.620:  -2376 123  16  655
1477482656.621:  -2293 123  16  655
1477482656.622:  -2124 123  16  655
1477482656.622:  -1895 123  16  655
1477482656.623:  -1660 123  16  655
1477482656.626:  -1482 123  16  655
1477482656.644:  -1408 123  16  655
1477482656.645:  -1474 123  16  655
1477482656.645:  -1670 123  16  655
1477482656.645:  -1935 123  16  655
1477482656.645:  -2183 123  16  655
1477482656.645:  -2383 123  16  655
1477482656.645:  -2586 123  16  655
1477482656.646:  -2882 123  16  655
1477482656.646:  -3279 123  16  655
1477482656.647:  -3660 123  16  655
1477482656.647:  -3883 123  16  655
1477482656.649:  -3904 123  16  655
1477482656.650:  -3785 123  16  655
1477482656.652:  -3633 123  16  655
1477482656.653:  -3507 123  16  655
1477482656.659:  -3411 123  16  655
1477482656.673:  -3340 123  16  655
1477482656.676:  -3288 123  16  655
1477482656.676:  -3219 123  16  655
1477482656.677:  -3092 123  16  655
1477482656.677:  -2905 123  16  655
1477482656.678:  -2706 123  16  655
1477482656.678:  -2533 123  16  655
1477482656.679:  -2360 123  16  655
1477482656.679:  -2117 123  16  655
1477482656.679:  -1795 123  16  655
1477482656.680:  -1485 123  16  655
1477482656.684:  -1299 123  16  655
1477482656.684:  -1252 123  16  655
1477482656.687:  -1238 123  16  655
1477482656.687:  -1143 123  16  655
1477482656.687:   -952 123  16  655
1477482656.691:   -735 123  16  655
1477482656.691:   -526 123  16  655
1477482656.693:   -277 123  16  655
1477482656.694:     70 123  16  655
1477482656.700:    470 123  16  655
1477482656.700:    795 123  16  655
1477482656.724:    955 123  16  655
1477482656.724:    980 123  16  655
1477482656.725:    958 123  16  655
1477482656.725:    935 123  16  655
1477482656.725:    888 123  16  655
1477482656.725:    815 123  16  655
1477482656.725:    764 123  16  655
1477482656.726:    779 123  16  655
1477482656.726:    819 123  16  655
1477482656.726:    785 124  16  651
1477482656.727:    619 124  16  651
1477482656.727:    364 124  16  651
1477482656.729:    109 124  16  651
1477482656.730:   -101 124  16  651
1477482656.730:   -284 124  16  651
1477482656.730:   -462 124  16  651
1477482656.733:   -613 124  16  651
1477482656.734:   -696 124  16  651
1477482656.735:   -686 124  16  651
1477482656.738:   -582 124  16  651
1477482656.740:   -405 124  16  651
1477482656.742:   -194 124  16  651
1477482656.746:     -1 124  16  651
1477482656.746:    118 124  16  651
1477482656.761:    145 124  16  651
1477482656.761:    128 124  16  651
1477482656.762:    136 124  16  651
1477482656.762:    189 124  16  651
1477482656.764:    225 124  16  651
1477482656.764:    162 124  16  651
1477482656.765:     -8 124  16  651
1477482656.767:   -190 124  16  651
1477482656.767:   -278 124  16  651
1477482656.768:   -278 124  16  651
1477482656.768:   -310 124  16  651
1477482656.771:   -450 124  16  651
1477482656.773:   -619 124  16  651
1477482656.774:   -651 124  16  651
1477482656.775:   -488 124  16  651
1477482656.776:   -258 124  16  651
1477482656.782:   -145 124  16  651
1477482656.783:   -190 124  16  651
1477482656.798:   -253 124  16  651
1477482656.799:   -186 124  16  651
1477482656.800:      7 124  16  651
1477482656.801:    227 124  16  651
1477482656.801:    420 124  16  651
1477482656.803:    624 124  16  651
1477482656.803:    869 124  16  651
1477482656.803:   1133 124  16  651
1477482656.804:   1371 124  16  651
1477482656.804:   1577 124  16  651
1477482656.804:   1771 124  16  651
1477482656.805:   1946 124  16  651
1477482656.806:   2084 124  16  651
1477482656.810:   2222 124  16  651
1477482656.811:   2433 124  16  651
1477482656.815:   2703 124  16  651
1477482656.816:   2889 124  16  651
1477482656.816:   2841 124  16  651
1477482656.819:   2574 124  16  651
1477482656.820:   2249 124  16  651
1477482656.834:   1982 124  16  651
1477482656.834:   1731 124  16  651
1477482656.834:   1377 124  16  651
1477482656.834:    923 124  16  651
1477482656.834:    533 124  16  651
1477482656.834:    364 124  16  651
1477482656.837:    420 124  16  651
1477482656.838:    582 124  16  651
1477482656.839:    754 124  16  651
1477482656.840:    927 124  16  651
1477482656.841:   1104 124  16  651
1477482656.847:   1240 124  16  651
1477482656.863:   1277 124  16  651
1477482656.864:   1219 124  16  651
1477482656.865:   1145 124  16  651
1477482656.870:   1112 124  16  651
1477482656.871:   1101 124  16  651
1477482656.871:   1050 124  16  651
1477482656.872:    950 124  16  651
1477482656.873:    881 124  16  651
1477482656.873:    927 124  16  651
1477482656.876:   1102 124  16  651
1477482656.876:   1334 124  16  651
1477482656.877:   1523 124  16  651
1477482656.879:   1608 124  16  651
1477482656.879:   1604 124  16  651
1477482656.879:   1565 124  16  651
1477482656.879:   1542 124  16  651
1477482656.880:   1546 124  16  651
1477482656.881:   1552 124  16  651
1477482656.898:   1534 124  16  651
1477482656.898:   1499 124  16  651
1477482656.899:   1484 124  16  651
1477482656.899:   1508 124  16  651
1477482656.899:   1542 124  16  651
1477482656.899:   1530 124  16  651
1477482656.899:   1451 124  16  651
1477482656.900:   1340 124  16  651
1477482656.900:   1260 124  16  651
1477482656.903:   1235 124  16  651
1477482656.903:   1222 124  16  651
1477482656.906:   1168 124  16  651
1477482656.906:   1066 124  16  651
1477482656.909:    961 124  16  651
1477482656.912:    898 124  16  651
1477482656.912:    884 124  16  651
1477482656.928:    888 124  16  651
1477482656.928:    896 124  16  651
1477482656.929:    920 124  16  651
1477482656.929:    970 124  16  651
1477482656.929:   1030 124  16  651
1477482656.929:   1071 124  16  651
1477482656.929:   1088 124  16  651
1477482656.929:   1106 124  16  651
1477482656.930:   1142 124  16  651
1477482656.934:   1174 124  16  651
1477482656.934:   1168 124  16  651
1477482656.937:   1133 124  16  651
1477482656.970:   1125 124  16  651
1477482656.971:   1183 124  16  651
1477482656.971:   1268 124  16  651
1477482656.971:   1303 124  16  651
1477482656.971:   1258 124  16  651
1477482656.972:   1188 124  16  651
1477482656.973:   1166 124  16  651
1477482656.973:   1209 124  16  651
1477482656.973:   1261 124  16  651
1477482656.975:   1266 124  16  651
1477482656.977:   1225 124  16  651
1477482656.978:   1186 124  16  651
1477482656.978:   1171 124  16  651
1477482656.979:   1156 124  16  651
1477482656.979:   1102 124  16  651
1477482656.979:   1009 124  16  651
1477482656.979:    919 124  16  651
1477482656.979:    878 124  16  651
1477482656.980:    887 124  16  651
1477482656.980:    910 124  16  651
1477482656.984:    912 124  16  651
1477482656.984:    897 124  16  651
1477482656.984:    898 124  16  651
1477482656.984:    924 124  16  651
1477482656.985:    948 124  16  651
1477482656.987:    933 124  16  651
1477482657.002:    877 124  16  651
1477482657.002:    829 124  16  651
1477482657.002:    843 124  16  651
1477482657.002:    921 124  16  651
1477482657.002:   1018 124  16  651
1477482657.003:   1091 124  16  651
1477482657.004:   1138 124  16  651
1477482657.005:   1181 124  16  651
1477482657.006:   1233 124  16  651
1477482657.006:   1289 124  16  651
1477482657.007:   1332 124  16  651
1477482657.009:   1350 124  16  651
1477482657.012:   1343 124  16  651
1477482657.016:   1323 124  16  651
1477482657.024:   1314 124  16  651
1477482657.024:   1341 124  16  651
1477482657.024:   1406 124  16  651
1477482657.024:   1472 124  16  651
1477482657.025:   1494 124  16  651
1477482657.025:   1470 124  16  651
1477482657.030:   1436 124  16  651
1477482657.199:   1422 124  16  651
1477482657.200:   1432 124  16  651
1477482657.200:   1445 124  16  651
1477482657.200:   1453 124  16  651
1477482657.200:   1470 124  16  651
1477482657.201:   1499 124  16  651
1477482657.201:   1510 124  16  651
1477482657.201:   1480 124  16  651
1477482657.201:   1419 124  16  651
1477482657.203:   1372 124  16  651
1477482657.203:   1362 124  16  651
1477482657.204:   1379 124  16  651
1477482657.204:   1386 124  16  651
1477482657.204:   1375 124  16  651
1477482657.206:   1371 124  16  651
1477482657.206:   1402 124  16  651
1477482657.209:   1461 124  16  651
1477482657.209:   1507 124  16  651
1477482657.209:   1497 124  16  651
1477482657.209:   1430 124  16  651
1477482657.209:   1345 124  16  651
1477482657.210:   1284 124  16  651
1477482657.210:   1256 124  16  651
1477482657.210:   1231 124  16  651
1477482657.210:   1177 124  16  651
1477482657.210:   1112 124  16  651
1477482657.210:   1071 124  16  651
1477482657.211:   1067 124  16  651
1477482657.211:   1056 124  16  651
1477482657.211:    992 124  16  651
1477482657.211:    887 124  16  651
1477482657.211:    802 124  16  651
1477482657.211:    782 124  16  651
1477482657.211:    806 124  16  651
1477482657.212:    815 124  16  651
1477482657.212:    790 124  16  651
1477482657.212:    758 124  16  651
1477482657.212:    740 124  16  651
1477482657.212:    718 124  16  651
1477482657.212:    668 124  16  651
1477482657.212:    591 124  16  651
1477482657.213:    525 124  16  651
1477482657.213:    493 124  16  651
1477482657.213:    475 124  16  651
1477482657.213:    441 124  16  651
1477482657.213:    396 124  16  651
1477482657.214:    368 124  16  651
1477482657.214:    367 124  16  651
1477482657.214:    359 124  16  651
1477482657.214:    311 124  16  651
1477482657.214:    231 124  16  651
1477482657.214:    162 124  16  651
1477482657.214:    134 124  16  651
1477482657.215:    136 124  16  651
1477482657.215:    132 124  16  651
1477482657.215:    110 124  16  651
1477482657.215:     91 124  16  651
1477482657.216:     97 124  16  651
1477482657.216:    127 124  16  651
1477482657.218:    153 124  16  651
1477482657.221:    159 124  16  651
1477482657.222:    157 124  16  651
1477482657.222:    168 124  16  651
1477482657.222:    201 124  16  651
1477482657.225:    242 124  16  651
1477482657.249:    283 124  16  651
1477482657.249:    326 124  16  651
1477482657.249:    365 124  16  651
1477482657.249:    384 124  16  651
1477482657.249:    368 124  16  651
1477482657.250:    321 124  16  651
1477482657.250:    270 124  16  651
1477482657.250:    246 124  16  651
1477482657.250:    256 124  16  651
1477482657.250:    289 124  16  651
1477482657.250:    320 124  16  651
1477482657.250:    329 124  16  651
1477482657.250:    312 124  16  651
1477482657.251:    284 124  16  651
1477482657.251:    272 124  16  651
1477482657.251:    294 124  16  651
1477482657.251:    334 124  16  651
1477482657.251:    347 124  16  651
1477482657.251:    309 124  16  651
1477482657.252:    255 124  16  651
1477482657.252:    245 124  16  651
1477482657.252:    307 124  16  651
1477482657.252:    395 124  16  651
1477482657.252:    429 124  16  651
1477482657.252:    380 124  16  651
1477482657.252:    298 124  16  651
1477482657.252:    254 124  16  651
1477482657.253:    272 124  16  651
1477482657.253:    311 124  16  651
1477482657.253:    323 124  16  651
1477482657.253:    300 124  16  651
1477482657.253:    282 124  16  651
1477482657.253:    293 124  16  651
1477482657.253:    321 124  16  651
1477482657.254:    336 124  16  651
1477482657.254:    322 124  16  651
1477482657.254:    296 124  16  651
1477482657.254:    279 124  16  651
1477482657.254:    278 124  16  651
1477482657.254:    287 124  16  651
1477482657.254:    309 124  16  651
1477482657.255:    357 124  16  651
1477482657.255:    429 124  16  651
1477482657.255:    493 124  16  651
1477482657.255:    510 124  16  651
1477482657.255:    478 124  16  651
1477482657.255:    437 124  16  651
1477482657.255:    427 124  16  651
1477482657.256:    450 124  16  651
1477482657.258:    471 124  16  651
1477482657.258:    466 124  16  651
1477482657.258:    450 124  16  651
1477482657.259:    452 124  16  651
1477482657.265:    474 124  16  651
1477482657.266:    492 124  16  651
1477482657.266:    486 124  16  651
1477482657.267:    463 124  16  651
1477482657.269:    434 124  16  651
1477482657.270:    413 124  16  651
1477482657.274:    408 124  16  651
1477482657.285:    432 124  16  651
1477482657.285:    478 124  16  651
1477482657.286:    519 124  16  651
1477482657.286:    528 124  16  651
1477482657.286:    513 124  16  651
1477482657.286:    513 124  16  651
1477482657.287:    530 124  16  651
1477482657.288:    522 124  16  651
1477482657.293:    453 124  16  651
1477482657.293:    364 124  16  651
1477482657.296:    335 124  16  651
1477482657.296:    385 124  16  651
1477482657.298:    449 124  16  651
1477482657.300:    451 124  16  651
1477482657.301:    401 124  16  651
1477482657.304:    372 124  16  651
1477482657.305:    409 124  16  651
1477482657.309:    471 124  16  651
1477482657.319:    501 124  16  651
1477482657.320:    492 124  16  651
1477482657.320:    491 124  16  651
1477482657.320:    529 124  16  651
1477482657.320:    588 124  16  651
1477482657.320:    629 124  16  651
1477482657.323:    629 124  16  651
1477482657.323:    596 124  16  651
1477482657.326:    547 124  16  651
1477482657.327:    492 124  16  651
1477482657.329:    447 124  16  651
1477482657.333:    427 124  16  651
1477482657.344:    433 124  16  651
1477482657.344:    445 124  16  651
1477482657.344:    443 124  16  651
1477482657.344:    421 124  16  651
1477482657.344:    395 124  16  651
1477482657.344:    376 124  16  651
1477482657.345:    363 124  16  651
1477482657.346:    340 124  16  651
1477482657.351:    293 124  16  651
1477482657.351:    237 124  16  651
1477482657.352:    207 124  16  651
1477482657.354:    226 124  16  651
1477482657.356:    290 124  16  651
1477482657.359:    361 124  16  651
1477482657.371:    398 124  16  651
1477482657.371:    401 124  16  651
1477482657.371:    398 124  16  651
1477482657.371:    409 124  16  651
1477482657.371:    429 124  16  651
1477482657.372:    447 124  16  651
1477482657.373:    466 124  16  651
1477482657.374:    499 124  16  651
1477482657.379:    549 124  16  651
1477482657.379:    602 124  16  651
1477482657.381:    641 124  16  651
1477482657.383:    662 124  16  651
1477482657.384:    675 124  16  651
1477482657.386:    686 124  16  651
1477482657.388:    691 124  16  651
1477482657.392:    697 124  16  651
1477482657.392:    713 124  16  651
1477482657.394:    741 124  16  651
1477482657.395:    766 124  16  651
1477482657.401:    776 124  16  651
1477482657.416:    776 124  16  651
1477482657.416:    784 124  16  651
1477482657.416:    805 124  16  651
1477482657.416:    817 124  16  651
1477482657.417:    785 124  16  651
1477482657.417:    712 124  16  651
1477482657.417:    649 124  16  651
1477482657.417:    662 124  16  651
1477482657.417:    762 124  16  651
1477482657.419:    891 124  16  651
1477482657.420:    959 124  16  651
1477482657.422:    935 124  16  651
1477482657.424:    866 124  16  651
1477482657.425:    831 124  16  651
1477482657.428:    856 124  16  651
1477482657.429:    886 124  16  651
1477482657.432:    864 124  16  651
1477482657.432:    800 124  16  651
1477482657.445:    754 124  16  651
1477482657.445:    772 124  16  651
1477482657.445:    819 124  16  651
1477482657.445:    825 124  16  651
1477482657.445:    772 124  16  651
1477482657.447:    709 124  16  651
1477482657.447:    667 124  16  651
1477482657.449:    603 124  16  651
1477482657.451:    464 124  16  651
1477482657.453:    273 124  16  651
1477482657.454:    130 124  16  651
1477482657.461:     85 124  16  651
1477482657.475:     74 124  16  651
1477482657.475:      1 120  16  650
1477482657.475:   -134 120  16  650
1477482657.476:   -226 120  16  650
1477482657.476:   -210 120  16  650
1477482657.476:   -141 120  16  650
1477482657.476:   -116 120  16  650
1477482657.476:   -145 120  16  650
1477482657.476:   -157 120  16  650
1477482657.478:   -115 120  16  650
1477482657.479:    -75 120  16  650
1477482657.480:   -107 120  16  650
1477482657.482:   -193 120  16  650
1477482657.487:   -259 120  16  650
1477482657.488:   -281 120  16  650
1477482657.489:   -309 120  16  650
1477482657.490:   -376 120  16  650
1477482657.493:   -435 120  16  650
1477482657.494:   -419 120  16  650
1477482657.497:   -337 120  16  650
1477482657.498:   -267 120  16  650
1477482657.500:   -263 120  16  650
1477482657.502:   -294 120  16  650
1477482657.506:   -310 120  16  650
1477482657.520:   -308 120  16  650
1477482657.520:   -325 120  16  650
1477482657.520:   -365 120  16  650
1477482657.521:   -385 120  16  650
1477482657.521:   -349 120  16  650
1477482657.521:   -276 120  16  650
1477482657.521:   -214 120  16  650
1477482657.522:   -196 120  16  650
1477482657.522:   -208 120  16  650
1477482657.527:   -216 120  16  650
1477482657.527:   -191 120  16  650
1477482657.528:   -148 120  16  650
1477482657.540:   -124 120  16  650
1477482657.540:   -152 120  16  650
1477482657.541:   -214 120  16  650
1477482657.541:   -237 120  16  650
1477482657.541:   -169 120  16  650
1477482657.541:    -55 120  16  650
1477482657.542:     -8 120  16  650
1477482657.543:    -87 120  16  650
1477482657.546:   -213 120  16  650
1477482657.547:   -266 120  16  650
1477482657.553:   -215 120  16  650
1477482657.553:   -152 120  16  650
1477482657.555:   -164 120  16  650
1477482657.558:   -226 120  16  650
1477482657.558:   -237 120  16  650
1477482657.561:   -156 120  16  650
1477482657.562:    -57 120  16  650
1477482657.568:    -34 120  16  650
1477482657.580:    -96 120  16  650
1477482657.581:   -169 120  16  650
1477482657.585:   -182 120  16  650
1477482657.585:   -129 120  16  650
1477482657.585:    -59 120  16  650
1477482657.585:    -20 120  16  650
1477482657.585:    -34 120  16  650
1477482657.585:    -83 120  16  650
1477482657.586:   -124 120  16  650
1477482657.586:   -106 120  16  650
1477482657.586:    -12 120  16  650
1477482657.589:    132 120  16  650
1477482657.589:    278 120  16  650
1477482657.591:    413 120  16  650
1477482657.593:    572 120  16  650
1477482657.594:    786 120  16  650
1477482657.597:   1044 120  16  650
1477482657.601:   1292 120  16  650
1477482657.601:   1476 120  16  650
1477482657.603:   1577 120  16  650
1477482657.604:   1609 120  16  650
1477482657.605:   1563 120  16  650
1477482657.611:   1394 120  16  650
1477482657.611:   1077 120  16  650
1477482657.621:    670 120  16  650
1477482657.622:    283 120  16  650
1477482657.622:     -5 120  16  650
1477482657.622:   -226 120  16  650
1477482657.622:   -482 120  16  650
1477482657.623:   -797 120  16  650
1477482657.624:  -1063 120  16  650
1477482657.625:  -1132 120  16  650
1477482657.630:   -982 120  16  650
1477482657.630:   -740 120  16  650
1477482657.631:   -549 120  16  650
1477482657.633:   -428 120  16  650
1477482657.644:   -293 120  16  650
1477482657.644:    -92 120  16  650
1477482657.644:    120 120  16  650
1477482657.644:    257 120  16  650
1477482657.645:    295 120  16  650
1477482657.648:    272 120  16  650
1477482657.653:    225 120  16  650
1477482657.653:    161 120  16  650
1477482657.658:     92 120  16  650
1477482657.658:     49 120  16  650
1477482657.658:     49 120  16  650
1477482657.658:     71 120  16  650
1477482657.662:     83 120  16  650
1477482657.662:     88 120  16  650
1477482657.668:    114 120  16  650
1477482657.669:    148 120  16  650
1477482657.669:    128 120  16  650
1477482657.669:     32 120  16  650
1477482657.670:    -77 120  16  650
1477482657.676:    -95 120  16  650
1477482657.682:     -6 120  16  650
1477482657.683:     92 120  16  650
1477482657.683:    107 120  16  650
1477482657.683:     53 120  16  650
1477482657.685:     24 120  16  650
1477482657.685:     70 120  16  650
1477482657.687:    134 120  16  650
1477482657.690:    126 120  16  650
1477482657.690:     42 120  16  650
1477482657.693:    -32 120  16  650
1477482657.703:    -27 120  16  650
1477482657.703:     29 120  16  650
1477482657.703:     60 120  16  650
1477482657.704:     25 120  16  650
1477482657.704:    -36 120  16  650
1477482657.709:    -68 120  16  650
1477482657.709:    -56 120  16  650
1477482657.710:    -41 120  16  650
1477482657.710:    -56 120  16  650
1477482657.712:    -84 120  16  650
1477482657.719:    -92 120  16  650
1477482657.719:    -61 120  16  650
1477482657.721:     -9 120  16  650
1477482657.722:     20 120  16  650
1477482657.723:      1 120  16  650
1477482657.724:    -55 120  16  650
1477482657.725:   -112 120  16  650
1477482657.731:   -140 120  16  650
1477482657.747:   -123 120  16  650
1477482657.748:    -71 120  16  650
1477482657.749:     -3 120  16  650
1477482657.752:     55 120  16  650
1477482657.753:    103 120  16  650
1477482657.754:    164 120  16  650
1477482657.754:    259 120  16  650
1477482657.754:    375 120  16  650
1477482657.768:    459 120  16  650
1477482657.768:    473 120  16  650
1477482657.768:    443 120  16  650
1477482657.769:    445 120  16  650
1477482657.770:    529 120  16  650
1477482657.770:    668 120  16  650
1477482657.770:    786 120  16  650
1477482657.770:    842 120  16  650
1477482657.771:    861 120  16  650
1477482657.771:    893 120  16  650
1477482657.771:    948 120  16  650
1477482657.772:    992 120  16  650
1477482657.772:   1001 120  16  650
1477482657.772:    997 120  16  650
1477482657.776:   1020 120  16  650
1477482657.856:   1078 120  16  650
1477482657.856:   1145 120  16  650
1477482657.856:   1188 120  16  650
1477482657.857:   1205 120  16  650
1477482657.858:   1215 120  16  650
1477482657.858:   1221 120  16  650
1477482657.858:   1218 120  16  650
1477482657.859:   1208 120  16  650
1477482657.859:   1215 120  16  650
1477482657.859:   1252 120  16  650
1477482657.859:   1299 120  16  650
1477482657.859:   1323 120  16  650
1477482657.860:   1322 120  16  650
1477482657.860:   1335 120  16  650
1477482657.861:   1383 120  16  650
1477482657.861:   1426 120  16  650
1477482657.861:   1391 120  16  650
1477482657.862:   1261 120  16  650
1477482657.862:   1118 120  16  650
1477482657.862:   1068 120  16  650
1477482657.863:   1127 120  16  650
1477482657.863:   1193 120  16  650
1477482657.863:   1150 120  16  650
1477482657.863:    983 120  16  650
1477482657.863:    788 120  16  650
1477482657.863:    669 120  16  650
1477482657.864:    626 120  16  650
1477482657.864:    569 120  16  650
1477482657.864:    436 120  16  650
1477482657.866:    275 120  16  650
1477482657.866:    188 120  16  650
1477482657.866:    229 120  16  650
1477482657.867:    355 120  16  650
1477482657.867:    491 120  16  650
1477482657.867:    615 120  16  650
1477482657.868:    769 120  16  650
1477482657.868:    970 120  16  650
1477482657.868:   1171 120  16  650
1477482657.869:   1311 120  16  650
1477482657.869:   1391 120  16  650
1477482657.869:   1469 120  16  650
1477482657.869:   1576 120  16  650
1477482657.869:   1676 120  16  650
1477482657.869:   1715 120  16  650
1477482657.870:   1692 120  16  650
1477482657.870:   1662 120  16  650
1477482657.870:   1668 120  16  650
1477482657.870:   1697 120  16  650
1477482657.872:   1718 120  16  650
1477482657.872:   1731 120  16  650
1477482657.874:   1757 120  16  650
1477482657.875:   1797 120  16  650
1477482657.876:   1832 120  16  650
1477482657.893:   1856 120  16  650
1477482657.893:   1898 120  16  650
1477482657.893:   1985 120  16  650
1477482657.893:   2090 120  16  650
1477482657.894:   2138 120  16  650
1477482657.894:   2073 120  16  650
1477482657.894:   1925 120  16  650
1477482657.895:   1773 120  16  650
1477482657.896:   1672 120  16  650
1477482657.899:   1603 120  16  650
1477482657.900:   1508 120  16  650
1477482657.903:   1364 120  16  650
1477482657.918:   1215 120  16  650
1477482657.919:   1115 120  16  650
1477482657.919:   1070 120  16  650
1477482657.920:   1037 120  16  650
1477482657.921:   1011 120  16  650
1477482657.921:   1044 120  16  650
1477482657.921:   1185 120  16  650
1477482657.922:   1388 120  16  650
1477482657.922:   1539 120  16  650
1477482657.923:   1562 120  16  650
1477482657.923:   1504 120  16  650
1477482657.928:   1473 120  16  650
1477482657.940:   1496 120  16  650
1477482657.941:   1480 120  16  650
1477482657.941:   1323 120  16  650
1477482657.942:   1047 120  16  650
1477482657.944:    794 120  16  650
1477482657.944:    684 120  16  650
1477482657.944:    699 120  16  650
1477482657.944:    703 120  16  650
1477482657.978:    602 120  16  650
1477482657.981:    428 120  16  650
1477482657.984:    293 120  16  650
1477482657.985:    259 120  16  650
1477482657.986:    284 120  16  650
1477482657.987:    288 120  16  650
1477482657.988:    252 120  16  650
1477482657.989:    223 120  16  650
1477482657.989:    244 120  16  650
1477482657.989:    290 120  16  650
1477482657.989:    308 120  16  650
1477482657.990:    289 120  16  650
1477482657.990:    278 120  16  650
1477482657.990:    303 120  16  650
1477482657.990:    333 120  16  650
1477482657.991:    332 120  16  650
1477482657.991:    326 120  16  650
1477482657.992:    371 120  16  650
1477482657.992:    482 120  16  650
1477482657.993:    593 120  16  650
1477482657.993:    627 120  16  650
1477482657.993:    580 120  16  650
1477482657.994:    516 120  16  650
1477482657.994:    483 120  16  650
1477482657.994:    480 120  16  650
1477482657.994:    481 120  16  650
1477482657.996:    492 120  16  650
1477482657.996:    525 120  16  650
1477482657.997:    574 120  16  650
1477482657.999:    598 120  16  650
1477482658.000:    571 120  16  650
1477482658.003:    519 120  16  650
1477482658.017:    475 120  16  650
1477482658.019:    446 120  16  650
1477482658.020:    402 120  16  650
1477482658.020:    334 120  16  650
1477482658.021:    273 120  16  650
1477482658.022:    261 120  16  650
1477482658.023:    296 120  16  650
1477482658.024:    323 120  16  650
1477482658.025:    288 120  16  650
1477482658.025:    204 120  16  650
1477482658.026:    131 120  16  650
1477482658.029:    106 120  16  650
1477482658.050:    107 120  16  650
1477482658.051:     95 120  16  650
1477482658.052:     70 120  16  650
1477482658.052:     69 120  16  650
1477482658.053:    103 120  16  650
1477482658.054:    153 120  16  650
1477482658.055:    199 120  16  650
1477482658.055:    242 120  16  650
1477482658.056:    263 120  16  650
1477482658.057:    219 120  16  650
1477482658.058:     92 120  16  650
1477482658.059:    -66 120  16  650
1477482658.059:   -183 120  16  650
1477482658.059:   -261 120  16  650
1477482658.059:   -385 120  16  650
1477482658.059:   -629 120  16  650
1477482658.060:   -967 120  16  650
1477482658.062:  -1316 120  16  650
1477482658.066:  -1642 120  16  650
1477482658.067:  -1963 120  16  650
1477482658.070:  -2298 120  16  650
1477482658.070:  -2619 120  16  650
1477482658.073:  -2883 120  16  650
1477482658.074:  -3045 120  16  650
1477482658.088:  -3031 120  16  650
1477482658.089:  -2739 120  16  650
1477482658.089:  -2169 120  16  650
1477482658.089:  -1492 120  16  650
1477482658.089:   -926 120  16  650
1477482658.089:   -515 120  16  650
1477482658.090:    -98 120  16  650
1477482658.090:    471 120  16  650
1477482658.090:   1101 120  16  650
1477482658.093:   1544 120  16  650
1477482658.098:   1664 120  16  650
1477482658.098:   1577 120  16  650
1477482658.099:   1484 120  16  650
1477482658.100:   1443 120  16  650
1477482658.103:   1375 120  16  650
1477482658.104:   1231 120  16  650
1477482658.111:   1074 120  16  650
1477482658.111:    994 120  16  650
1477482658.114:    985 120  16  650
1477482658.114:    975 120  16  650
1477482658.114:    931 120  16  650
1477482658.116:    911 120  16  650
1477482658.119:    967 120  16  650
1477482658.120:   1058 120  16  650
1477482658.125:   1102 120  16  650
1477482658.125:   1054 120  16  650
1477482658.144:    944 120  16  650
1477482658.144:    831 120  16  650
1477482658.145:    751 120  16  650
1477482658.145:    704 120  16  650
1477482658.145:    678 120  16  650
1477482658.145:    664 120  16  650
1477482658.146:    649 120  16  650
1477482658.146:    607 120  16  650
1477482658.146:    521 120  16  650
1477482658.147:    408 120  16  650
1477482658.147:    317 120  16  650
1477482658.148:    286 120  16  650
1477482658.153:    319 120  16  650
1477482658.153:    383 120  16  650
1477482658.154:    439 120  16  650
1477482658.158:    462 120  16  650
1477482658.159:    466 120  16  650
1477482658.161:    474 120  16  650
1477482658.162:    496 120  16  650
1477482658.166:    517 120  16  650
1477482658.167:    518 120  16  650
1477482658.168:    504 120  16  650
1477482658.169:    511 120  16  650
1477482658.172:    565 120  16  650
1477482658.173:    656 120  16  650
1477482658.180:    741 120  16  650
1477482658.190:    794 120  16  650
1477482658.190:    827 120  16  650
1477482658.192:    858 120  16  650
1477482658.192:    882 120  16  650
1477482658.193:    878 120  16  650
1477482658.193:    839 120  16  650
1477482658.194:    796 120  16  650
1477482658.195:    788 120  16  650
1477482658.195:    815 120  16  650
1477482658.199:    844 120  16  650
1477482658.213:    854 120  16  650
1477482658.213:    855 120  16  650
1477482658.213:    880 120  16  650
1477482658.214:    932 120  16  650
1477482658.214:    985 120  16  650
1477482658.214:   1004 120  16  650
1477482658.215:    995 120  16  650
1477482658.216:   1004 120  16  650
1477482658.216:   1075 120  16  650
1477482658.217:   1197 120  16  650
1477482658.221:   1320 120  16  650
1477482658.221:   1391 120  16  650
1477482658.222:   1392 120  16  650
1477482658.223:   1354 120  16  650
1477482658.246:   1319 120  16  650
1477482658.246:   1308 120  16  650
1477482658.247:   1319 120  16  650
1477482658.247:   1338 120  16  650
1477482658.247:   1360 120  16  650
1477482658.247:   1382 120  16  650
1477482658.247:   1407 120  16  650
