timestamp: ADC HeartRate4sAverage HeartRate30sAverage HRV8sAverage
1477473252.381:  -2143 154  20  480
1477473252.386:  -2176 154  20  480
1477473252.386:  -2236 154  20  480
1477473252.386:  -2324 154  20  480
1477473252.387:  -2427 154  20  480
1477473252.387:  -2522 154  20  480
1477473252.387:  -2600 154  20  480
1477473252.387:  -2663 154  20  480
1477473252.387:  -2717 154  20  480
1477473252.388:  -2758 154  20  480
1477473252.388:  -2782 154  20  480
1477473252.388:  -2789 154  20  480
1477473252.388:  -2793 154  20  480
1477473252.389:  -2802 154  20  480
1477473252.389:  -2808 154  20  480
1477473252.389:  -2799 154  20  480
1477473252.389:  -2770 154  20  480
1477473252.389:  -2732 154  20  480
1477473252.389:  -2704 154  20  480
1477473252.390:  -2691 154  20  480
1477473252.390:  -2682 154  20  480
1477473252.390:  -2665 154  20  480
1477473252.390:  -2641 154  20  480
1477473252.390:  -2621 154  20  480
1477473252.391:  -2607 154  20  480
1477473252.391:  -2584 154  20  480
1477473252.391:  -2539 154  20  480
1477473252.391:  -2473 154  20  480
1477473252.391:  -2409 154  20  480
1477473252.391:  -2365 154  20  480
1477473252.392:  -2337 154  20  480
1477473252.392:  -2304 154  20  480
1477473252.392:  -2256 154  20  480
1477473252.392:  -2206 154  20  480
1477473252.392:  -2177 154  20  480
1477473252.392:  -2171 154  20  480
1477473252.393:  -2171 154  20  480
1477473252.393:  -2160 154  20  480
1477473252.393:  -2136 154  20  480
1477473252.393:  -2114 154  20  480
1477473252.393:  -2099 154  20  480
1477473252.394:  -2084 154  20  480
1477473252.394:  -2062 154  20  480
1477473252.394:  -2030 154  20  480
1477473252.395:  -1998 154  20  480
1477473252.395:  -1972 154  20  480
1477473252.395:  -1948 154  20  480
1477473252.395:  -1914 154  20  480
1477473252.395:  -1862 154  20  480
1477473252.396:  -1799 154  20  480
1477473252.396:  -1744 154  20  480
1477473252.396:  -1710 154  20  480
1477473252.396:  -1694 154  20  480
1477473252.396:  -1671 154  20  480
1477473252.396:  -1630 154  20  480
1477473252.397:  -1578 154  20  480
1477473252.397:  -1538 154  20  480
1477473252.407:  -1512 154  20  480
1477473252.407:  -1481 154  20  480
1477473252.407:  -1435 154  20  480
1477473252.407:  -1395 154  20  480
1477473252.408:  -1387 154  20  480
1477473252.408:  -1404 154  20  480
1477473252.408:  -1405 154  20  480
1477473252.408:  -1368 154  20  480
1477473252.409:  -1312 154  20  480
1477473252.410:  -1275 154  20  480
1477473252.411:  -1268 154  20  480
1477473252.415:  -1262 154  20  480
1477473252.419:  -1236 154  20  480
1477473252.419:  -1199 154  20  480
1477473252.420:  -1179 154  20  480
1477473252.420:  -1178 154  20  480
1477473252.421:  -1175 154  20  480
1477473252.422:  -1154 154  20  480
1477473252.438:  -1129 154  20  480
1477473252.439:  -1118 154  20  480
1477473252.439:  -1125 154  20  480
1477473252.439:  -1136 154  20  480
1477473252.440:  -1132 154  20  480
1477473252.440:  -1113 154  20  480
1477473252.440:  -1090 154  20  480
1477473252.444:  -1076 154  20  480
1477473252.445:  -1081 154  20  480
1477473252.446:  -1101 154  20  480
1477473252.457:  -1118 154  20  480
1477473252.458:  -1106 154  20  480
1477473252.458:  -1060 154  20  480
1477473252.459:   -999 154  20  480
1477473252.460:   -953 154  20  480
1477473252.460:   -942 154  20  480
1477473252.461:   -951 154  20  480
1477473252.463:   -951 154  20  480
1477473252.463:   -928 154  20  480
1477473252.464:   -892 154  20  480
1477473252.464:   -872 154  20  480
1477473252.465:   -887 154  20  480
1477473252.475:   -931 154  20  480
1477473252.476:   -979 154  20  480
1477473252.476:  -1006 154  20  480
1477473252.476:  -1006 154  20  480
1477473252.477:   -993 154  20  480
1477473252.479:   -983 154  20  480
1477473252.479:   -981 154  20  480
1477473252.480:   -981 154  20  480
1477473252.482:   -975 154  20  480
1477473252.483:   -961 154  20  480
1477473252.493:   -945 154  20  480
1477473252.493:   -931 154  20  480
1477473252.493:   -917 154  20  480
1477473252.493:   -898 154  20  480
1477473252.493:   -877 154  20  480
1477473252.493:   -856 154  20  480
1477473252.497:   -833 154  20  480
1477473252.498:   -794 154  20  480
1477473252.501:   -721 154  20  480
1477473252.501:   -618 154  20  480
1477473252.505:   -510 154  20  480
1477473252.508:   -422 154  20  480
1477473252.514:   -347 154  20  480
1477473252.514:   -255 154  20  480
1477473252.514:   -124 154  20  480
1477473252.514:     29 154  20  480
1477473252.514:    162 154  20  480
1477473252.519:    253 154  20  480
1477473252.519:    315 154  20  480
1477473252.520:    379 154  20  480
1477473252.521:    456 154  20  480
1477473252.524:    537 154  20  480
1477473252.533:    610 154  20  480
1477473252.534:    680 154  20  480
1477473252.534:    758 154  20  480
1477473252.534:    844 154  20  480
1477473252.534:    937 154  20  480
1477473252.536:   1038 154  20  480
1477473252.540:   1146 154  20  480
1477473252.540:   1248 154  20  480
1477473252.542:   1324 154  20  480
1477473252.549:   1381 154  20  480
1477473252.552:   1445 154  20  480
1477473252.556:   1533 154  20  480
1477473252.558:   1639 154  20  480
1477473252.558:   1731 154  20  480
1477473252.570:   1792 154  20  480
1477473252.570:   1835 154  20  480
1477473252.570:   1889 154  20  480
1477473252.571:   1963 154  20  480
1477473252.589:   2041 154  20  480
1477473252.590:   2096 154  20  480
1477473252.590:   2131 154  20  480
1477473252.590:   2184 154  20  480
1477473252.590:   2300 154  20  480
1477473252.590:   2491 154  20  480
1477473252.591:   2737 154  20  480
1477473252.591:   3020 154  20  480
1477473252.591:   3379 154  20  480
1477473252.591:   3890 154  20  480
1477473252.591:   4586 154  20  480
1477473252.592:   5406 154  20  480
1477473252.592:   6215 154  20  480
1477473252.592:   6888 154  20  480
1477473252.593:   7378 154  20  480
1477473252.594:   7702 154  20  480
1477473252.594:   7891 154  20  480
1477473252.596:   7939 154  20  480
1477473252.598:   7776 154  20  480
1477473252.601:   7311 154  20  480
1477473252.611:   6511 154  20  480
1477473252.612:   5471 154  20  480
1477473252.613:   4382 154  20  480
1477473252.614:   3391 154  20  480
1477473252.614:   2483 154  20  480
1477473252.615:   1526 154  20  480
1477473252.615:    465 154  20  480
1477473252.616:   -554 154  20  480
1477473252.617:  -1293 154  20  480
1477473252.620:  -1653 154  20  480
1477473252.638:  -1757 154  20  480
1477473252.638:  -1798 154  20  480
1477473252.638:  -1811 154  20  480
1477473252.638:  -1663 154  20  480
1477473252.638:  -1251 154  20  480
1477473252.638:   -639 154  20  480
1477473252.638:      0 154  20  480
1477473252.639:    563 154  20  480
1477473252.639:   1087 154  20  480
1477473252.639:   1647 154  20  480
1477473252.640:   2233 154  20  480
1477473252.643:   2751 154  20  480
1477473252.646:   3128 154  20  480
1477473252.646:   3387 154  20  480
1477473252.648:   3605 154  20  480
1477473252.649:   3824 154  20  480
1477473252.658:   4020 154  20  480
1477473252.658:   4157 154  20  480
1477473252.658:   4235 154  20  480
1477473252.658:   4282 154  20  480
1477473252.661:   4329 154  20  480
1477473252.662:   4379 154  20  480
1477473252.663:   4423 154  20  480
1477473252.668:   4458 154  20  480
1477473252.669:   4490 154  20  480
1477473252.670:   4530 154  20  480
1477473252.673:   4580 154  20  480
1477473252.676:   4636 154  20  480
1477473252.689:   4693 154  20  480
1477473252.692:   4744 154  20  480
1477473252.693:   4776 154  20  480
1477473252.693:   4778 154  20  480
1477473252.694:   4754 154  20  480
1477473252.696:   4722 154  20  480
1477473252.696:   4710 154  20  480
1477473252.698:   4728 154  20  480
1477473252.699:   4766 154  20  480
1477473252.700:   4800 154  20  480
1477473252.712:   4818 154  20  480
1477473252.713:   4828 154  20  480
1477473252.714:   4839 154  20  480
1477473252.714:   4854 154  20  480
1477473252.715:   4863 154  20  480
1477473252.715:   4867 154  20  480
1477473252.717:   4885 154  20  480
1477473252.717:   4927 154  20  480
1477473252.718:   4981 154  20  480
1477473252.719:   5017 154  20  480
1477473252.720:   5024 154  20  480
1477473252.724:   5017 154  20  480
1477473252.731:   5015 154  20  480
1477473252.731:   5014 154  20  480
1477473252.732:   5000 154  20  480
1477473252.733:   4971 154  20  480
1477473252.734:   4952 154  20  480
1477473252.736:   4971 154  20  480
1477473252.737:   5029 154  20  480
1477473252.738:   5099 154  20  480
1477473252.738:   5154 154  20  480
1477473252.740:   5194 154  20  480
1477473252.750:   5238 154  20  480
1477473252.752:   5307 154  20  480
1477473252.752:   5394 154  20  480
1477473252.753:   5476 154  20  480
1477473252.754:   5530 154  20  480
1477473252.754:   5557 154  20  480
1477473252.755:   5587 154  20  480
1477473252.756:   5641 154  20  480
1477473252.757:   5720 154  20  480
1477473252.759:   5805 154  20  480
1477473252.768:   5882 154  20  480
1477473252.768:   5952 154  20  480
1477473252.768:   6024 119  15  487
1477473252.769:   6096 119  15  487
1477473252.770:   6164 119  15  487
1477473252.770:   6230 119  15  487
1477473252.771:   6298 119  15  487
1477473252.775:   6359 119  15  487
1477473252.776:   6398 119  15  487
1477473252.779:   6417 119  15  487
1477473252.779:   6442 119  15  487
1477473252.781:   6495 119  15  487
1477473252.782:   6566 119  15  487
1477473252.786:   6621 119  15  487
1477473252.787:   6648 119  15  487
1477473252.788:   6666 119  15  487
1477473252.794:   6699 119  15  487
1477473252.795:   6738 119  15  487
1477473252.796:   6759 119  15  487
1477473252.800:   6754 119  15  487
1477473252.812:   6742 119  15  487
1477473252.814:   6744 119  15  487
1477473252.814:   6760 119  15  487
1477473252.815:   6777 119  15  487
1477473252.815:   6791 119  15  487
1477473252.817:   6805 119  15  487
1477473252.817:   6825 119  15  487
1477473252.818:   6849 119  15  487
1477473252.819:   6869 119  15  487
1477473252.820:   6879 119  15  487
1477473252.843:   6867 119  15  487
1477473252.844:   6834 119  15  487
1477473252.844:   6801 119  15  487
1477473252.844:   6796 119  15  487
1477473252.844:   6821 119  15  487
1477473252.845:   6841 119  15  487
1477473252.845:   6820 119  15  487
1477473252.845:   6767 119  15  487
1477473252.846:   6733 119  15  487
1477473252.846:   6748 119  15  487
1477473252.846:   6781 119  15  487
1477473252.847:   6781 119  15  487
1477473252.847:   6731 119  15  487
1477473252.849:   6672 119  15  487
1477473252.850:   6647 119  15  487
1477473252.851:   6655 119  15  487
1477473252.852:   6659 119  15  487
1477473252.854:   6632 119  15  487
1477473252.855:   6584 119  15  487
1477473252.858:   6537 119  15  487
1477473252.858:   6494 119  15  487
1477473252.861:   6438 119  15  487
1477473252.893:   6362 119  15  487
1477473252.893:   6280 119  15  487
1477473252.893:   6217 119  15  487
1477473252.893:   6177 119  15  487
1477473252.894:   6140 119  15  487
1477473252.894:   6084 119  15  487
1477473252.894:   6009 119  15  487
1477473252.895:   5935 119  15  487
1477473252.895:   5878 119  15  487
1477473252.895:   5833 119  15  487
1477473252.895:   5784 119  15  487
1477473252.895:   5724 119  15  487
1477473252.895:   5660 119  15  487
1477473252.897:   5598 119  15  487
1477473252.898:   5541 119  15  487
1477473252.898:   5487 119  15  487
1477473252.899:   5439 119  15  487
1477473252.900:   5395 119  15  487
1477473252.901:   5349 119  15  487
1477473252.902:   5290 119  15  487
1477473252.903:   5216 119  15  487
1477473252.904:   5147 119  15  487
1477473252.904:   5097 119  15  487
1477473252.910:   5058 119  15  487
1477473252.922:   5014 119  15  487
1477473252.923:   4968 119  15  487
1477473252.924:   4945 119  15  487
1477473252.924:   4964 119  15  487
1477473252.925:   5000 119  15  487
1477473252.927:   5006 119  15  487
1477473252.927:   4970 119  15  487
1477473252.928:   4929 119  15  487
1477473252.929:   4920 119  15  487
1477473252.932:   4922 119  15  487
1477473252.948:   4874 119  15  487
1477473252.949:   4753 119  15  487
1477473252.950:   4617 119  15  487
1477473252.950:   4543 119  15  487
1477473252.951:   4533 119  15  487
1477473252.952:   4518 119  15  487
1477473252.953:   4453 119  15  487
1477473252.954:   4379 119  15  487
1477473252.954:   4382 119  15  487
1477473252.955:   4481 119  15  487
1477473252.967:   4612 119  15  487
1477473252.967:   4691 119  15  487
1477473252.967:   4710 119  15  487
1477473252.967:   4717 119  15  487
1477473252.967:   4747 119  15  487
1477473252.968:   4783 119  15  487
1477473252.968:   4790 119  15  487
1477473252.968:   4765 119  15  487
1477473252.968:   4738 119  15  487
1477473252.968:   4728 119  15  487
1477473252.968:   4735 119  15  487
1477473252.968:   4752 119  15  487
1477473252.970:   4790 119  15  487
1477473252.972:   4863 119  15  487
1477473252.975:   4965 119  15  487
1477473252.976:   5071 119  15  487
1477473252.978:   5160 119  15  487
1477473252.979:   5231 119  15  487
1477473252.983:   5301 119  15  487
1477473252.990:   5382 119  15  487
1477473253.000:   5467 119  15  487
1477473253.001:   5538 119  15  487
1477473253.002:   5579 119  15  487
1477473253.002:   5599 119  15  487
1477473253.002:   5622 119  15  487
1477473253.003:   5657 119  15  487
1477473253.003:   5692 119  15  487
1477473253.004:   5710 119  15  487
1477473253.006:   5715 119  15  487
1477473253.006:   5730 119  15  487
1477473253.007:   5770 119  15  487
1477473253.008:   5823 119  15  487
1477473253.018:   5871 119  15  487
1477473253.018:   5912 119  15  487
1477473253.018:   5967 119  15  487
1477473253.020:   6055 119  15  487
1477473253.020:   6175 119  15  487
1477473253.024:   6309 119  15  487
1477473253.024:   6442 119  15  487
1477473253.024:   6573 119  15  487
1477473253.026:   6707 119  15  487
1477473253.032:   6842 119  15  487
1477473253.043:   6969 119  15  487
1477473253.043:   7078 119  15  487
1477473253.043:   7171 119  15  487
1477473253.044:   7249 119  15  487
1477473253.044:   7303 119  15  487
1477473253.044:   7330 119  15  487
1477473253.044:   7331 119  15  487
1477473253.044:   7330 119  15  487
1477473253.045:   7354 119  15  487
1477473253.047:   7419 119  15  487
1477473253.047:   7511 119  15  487
1477473253.050:   7606 119  15  487
1477473253.054:   7695 119  15  487
1477473253.055:   7785 119  15  487
1477473253.066:   7892 119  15  487
1477473253.066:   8015 119  15  487
1477473253.066:   8135 119  15  487
1477473253.066:   8232 119  15  487
1477473253.066:   8297 119  15  487
1477473253.066:   8346 119  15  487
1477473253.073:   8390 119  15  487
1477473253.160:   8435 119  15  487
1477473253.169:   8480 119  15  487
1477473253.169:   8518 119  15  487
1477473253.170:   8551 119  15  487
1477473253.170:   8586 119  15  487
1477473253.170:   8628 119  15  487
1477473253.170:   8673 119  15  487
1477473253.171:   8710 119  15  487
1477473253.171:   8725 119  15  487
1477473253.171:   8716 119  15  487
1477473253.171:   8690 119  15  487
1477473253.172:   8657 119  15  487
1477473253.172:   8621 119  15  487
1477473253.172:   8575 119  15  487
1477473253.172:   8519 119  15  487
1477473253.173:   8458 119  15  487
1477473253.173:   8409 119  15  487
1477473253.173:   8382 119  15  487
1477473253.173:   8380 119  15  487
1477473253.174:   8398 119  15  487
1477473253.174:   8424 119  15  487
1477473253.174:   8446 119  15  487
1477473253.174:   8460 119  15  487
1477473253.175:   8467 119  15  487
1477473253.177:   8470 119  15  487
1477473253.188:   8475 119  15  487
1477473253.188:   8486 119  15  487
1477473253.188:   8508 119  15  487
1477473253.188:   8535 119  15  487
1477473253.188:   8558 119  15  487
1477473253.188:   8576 119  15  487
1477473253.188:   8601 119  15  487
1477473253.189:   8650 119  15  487
1477473253.189:   8718 119  15  487
1477473253.189:   8780 119  15  487
1477473253.189:   8812 119  15  487
1477473253.189:   8816 119  15  487
1477473253.189:   8818 119  15  487
1477473253.189:   8844 119  15  487
1477473253.190:   8893 119  15  487
1477473253.190:   8937 119  15  487
1477473253.190:   8955 119  15  487
1477473253.190:   8952 119  15  487
1477473253.190:   8953 119  15  487
1477473253.190:   8978 119  15  487
1477473253.190:   9014 119  15  487
1477473253.191:   9027 119  15  487
1477473253.191:   8998 119  15  487
1477473253.191:   8949 119  15  487
1477473253.191:   8921 119  15  487
1477473253.191:   8938 119  15  487
1477473253.192:   8980 119  15  487
1477473253.192:   9010 119  15  487
1477473253.192:   9016 119  15  487
1477473253.192:   9027 119  15  487
1477473253.192:   9079 119  15  487
1477473253.193:   9171 119  15  487
1477473253.193:   9261 119  15  487
1477473253.193:   9311 119  15  487
1477473253.193:   9324 119  15  487
1477473253.193:   9332 119  15  487
1477473253.193:   9355 119  15  487
1477473253.201:   9380 119  15  487
1477473253.202:   9380 119  15  487
1477473253.202:   9353 119  15  487
1477473253.202:   9318 119  15  487
1477473253.206:   9292 119  15  487
1477473253.214:   9270 119  15  487
1477473253.214:   9240 119  15  487
1477473253.214:   9201 119  15  487
1477473253.215:   9165 119  15  487
1477473253.218:   9137 119  15  487
1477473253.220:   9095 119  15  487
1477473253.220:   9017 119  15  487
1477473253.221:   8900 119  15  487
1477473253.223:   8767 119  15  487
1477473253.225:   8645 119  15  487
1477473253.226:   8543 119  15  487
1477473253.230:   8445 119  15  487
1477473253.231:   8337 119  15  487
1477473253.232:   8225 119  15  487
1477473253.234:   8120 119  15  487
1477473253.235:   8036 119  15  487
1477473253.261:   7977 119  15  487
1477473253.263:   7933 119  15  487
1477473253.263:   7888 119  15  487
1477473253.264:   7829 119  15  487
1477473253.265:   7755 119  15  487
1477473253.265:   7682 119  15  487
1477473253.266:   7626 119  15  487
1477473253.268:   7587 119  15  487
1477473253.268:   7552 119  15  487
1477473253.269:   7505 119  15  487
1477473253.270:   7443 119  15  487
1477473253.270:   7378 119  15  487
1477473253.270:   7322 119  15  487
1477473253.271:   7279 119  15  487
1477473253.271:   7249 119  15  487
1477473253.271:   7226 119  15  487
1477473253.285:   7208 119  15  487
1477473253.285:   7201 119  15  487
1477473253.286:   7212 119  15  487
1477473253.287:   7237 119  15  487
1477473253.287:   7259 119  15  487
1477473253.287:   7260 119  15  487
1477473253.287:   7241 119  15  487
1477473253.288:   7222 119  15  487
1477473253.288:   7222 119  15  487
1477473253.289:   7235 119  15  487
1477473253.289:   7239 119  15  487
1477473253.290:   7224 119  15  487
1477473253.290:   7208 119  15  487
1477473253.291:   7214 119  15  487
1477473253.293:   7245 119  15  487
1477473253.294:   7276 119  15  487
1477473253.304:   7290 119  15  487
1477473253.304:   7290 119  15  487
1477473253.304:   7291 119  15  487
1477473253.304:   7298 119  15  487
1477473253.305:   7304 119  15  487
1477473253.306:   7305 119  15  487
1477473253.310:   7303 119  15  487
1477473253.312:   7300 119  15  487
1477473253.312:   7284 119  15  487
1477473253.313:   7256 119  15  487
1477473253.317:   7231 119  15  487
1477473253.318:   7223 119  15  487
1477473253.329:   7229 119  15  487
1477473253.329:   7240 119  15  487
1477473253.329:   7262 119  15  487
1477473253.329:   7323 119  15  487
1477473253.336:   7447 119  15  487
1477473253.337:   7637 119  15  487
1477473253.338:   7912 119  15  487
1477473253.338:   8320 119  15  487
1477473253.338:   8889 119  15  487
1477473253.338:   9574 119  15  487
1477473253.339:  10249 119  15  487
1477473253.341:  10782 119  15  487
1477473253.362:  11124 119  15  487
1477473253.363:  11319 119  15  487
1477473253.363:  11423 119  15  487
1477473253.364:  11418 119  15  487
1477473253.364:  11207 119  15  487
1477473253.365:  10686 119  15  487
1477473253.365:   9841 119  15  487
1477473253.366:   8787 119  15  487
1477473253.366:   7706 119  15  487
1477473253.367:   6712 119  15  487
1477473253.367:   5772 119  15  487
1477473253.368:   4763 119  15  487
1477473253.368:   3638 119  15  487
1477473253.372:   2527 119  15  487
1477473253.381:   1645 119  15  487
1477473253.381:   1097 119  15  487
1477473253.382:    801 119  15  487
1477473253.383:    617 119  15  487
1477473253.383:    517 119  15  487
1477473253.385:    607 119  15  487
1477473253.386:    959 119  15  487
1477473253.387:   1516 119  15  487
1477473253.399:   2146 119  15  487
1477473253.400:   2780 119  15  487
1477473253.401:   3440 119  15  487
1477473253.401:   4132 119  15  487
1477473253.402:   4770 119  15  487
1477473253.406:   5240 119  15  487
1477473253.417:   5512 119  15  487
1477473253.418:   5670 119  15  487
1477473253.419:   5814 119  15  487
1477473253.419:   5971 119  15  487
1477473253.420:   6088 119  15  487
1477473253.421:   6121 119  15  487
1477473253.421:   6081 119  15  487
1477473253.424:   6021 119  15  487
1477473253.433:   5984 119  15  487
1477473253.435:   5969 119  15  487
1477473253.435:   5948 119  15  487
1477473253.438:   5900 119  15  487
1477473253.439:   5836 119  15  487
1477473253.440:   5786 119  15  487
1477473253.441:   5775 119  15  487
1477473253.442:   5802 119  15  487
1477473253.443:   5848 119  15  487
1477473253.445:   5891 119  15  487
1477473253.446:   5931 119  15  487
1477473253.449:   5974 119  15  487
1477473253.450:   6013 119  15  487
1477473253.450:   6033 119  15  487
1477473253.451:   6038 119  15  487
1477473253.452:   6050 119  15  487
1477473253.452:   6091 119  15  487
1477473253.453:   6151 119  15  487
1477473253.454:   6190 119  15  487
1477473253.454:   6185 119  15  487
1477473253.455:   6147 119  15  487
1477473253.456:   6116 119  15  487
1477473253.457:   6108 119  15  487
1477473253.461:   6108 119  15  487
1477473253.477:   6100 119  15  487
1477473253.477:   6094 119  15  487
1477473253.479:   6115 119  15  487
1477473253.479:   6168 119  15  487
1477473253.481:   6231 119  15  487
1477473253.482:   6278 119  15  487
1477473253.482:   6302 119  15  487
1477473253.482:   6319 119  15  487
1477473253.483:   6337 119  15  487
1477473253.484:   6347 119  15  487
1477473253.497:   6339 119  15  487
1477473253.497:   6323 119  15  487
1477473253.497:   6315 119  15  487
1477473253.498:   6320 119  15  487
1477473253.498:   6334 119  15  487
1477473253.498:   6354 119  15  487
1477473253.498:   6386 119  15  487
1477473253.504:   6437 119  15  487
1477473253.516:   6505 119  15  487
1477473253.517:   6577 119  15  487
1477473253.517:   6646 119  15  487
1477473253.517:   6711 119  15  487
1477473253.518:   6767 119  15  487
1477473253.518:   6809 119  15  487
1477473253.518:   6837 119  15  487
1477473253.518:   6864 119  15  487
1477473253.518:   6901 119  15  487
1477473253.519:   6939 119  15  487
1477473253.521:   6964 119  15  487
1477473253.523:   6974 119  15  487
1477473253.537:   6990  77  10  533
1477473253.538:   7023  77  10  533
1477473253.539:   7072  77  10  533
1477473253.540:   7122  77  10  533
1477473253.540:   7165  77  10  533
1477473253.541:   7206  77  10  533
1477473253.541:   7248  77  10  533
1477473253.542:   7287  77  10  533
1477473253.543:   7316  77  10  533
1477473253.543:   7338  77  10  533
1477473253.557:   7357  77  10  533
1477473253.558:   7365  77  10  533
1477473253.560:   7347  77  10  533
1477473253.561:   7302  77  10  533
1477473253.561:   7247  77  10  533
1477473253.562:   7197  77  10  533
1477473253.562:   7146  77  10  533
1477473253.563:   7067  77  10  533
1477473253.564:   6948  77  10  533
1477473253.564:   6806  77  10  533
1477473253.565:   6681  77  10  533
1477473253.565:   6598  77  10  533
1477473253.567:   6552  77  10  533
1477473253.570:   6514  77  10  533
1477473253.576:   6467  77  10  533
1477473253.577:   6419  77  10  533
1477473253.579:   6389  77  10  533
1477473253.612:   6382  77  10  533
1477473253.616:   6380  77  10  533
1477473253.618:   6349  77  10  533
1477473253.619:   6274  77  10  533
1477473253.624:   6167  77  10  533
1477473253.635:   6047  77  10  533
1477473253.636:   5922  77  10  533
1477473253.637:   5783  77  10  533
1477473253.638:   5621  77  10  533
1477473253.638:   5447  77  10  533
1477473253.639:   5284  77  10  533
1477473253.640:   5145  77  10  533
1477473253.640:   5014  77  10  533
1477473253.641:   4871  77  10  533
1477473253.642:   4721  77  10  533
1477473253.652:   4589  77  10  533
1477473253.654:   4496  77  10  533
1477473253.654:   4426  77  10  533
1477473253.655:   4348  77  10  533
1477473253.656:   4245  77  10  533
1477473253.657:   4128  77  10  533
1477473253.658:   4020  77  10  533
1477473253.659:   3921  77  10  533
1477473253.660:   3815  77  10  533
1477473253.660:   3693  77  10  533
1477473253.661:   3569  77  10  533
1477473253.662:   3464  77  10  533
1477473253.663:   3386  77  10  533
1477473253.663:   3330  77  10  533
1477473253.664:   3287  77  10  533
1477473253.666:   3252  77  10  533
1477473253.667:   3221  77  10  533
1477473253.667:   3193  77  10  533
1477473253.667:   3172  77  10  533
1477473253.668:   3162  77  10  533
1477473253.668:   3158  77  10  533
1477473253.668:   3138  77  10  533
1477473253.669:   3086  77  10  533
1477473253.669:   3012  77  10  533
1477473253.669:   2938  77  10  533
1477473253.669:   2876  77  10  533
1477473253.672:   2816  77  10  533
1477473253.673:   2739  77  10  533
1477473253.690:   2646  77  10  533
1477473253.691:   2560  77  10  533
1477473253.692:   2499  77  10  533
1477473253.692:   2459  77  10  533
1477473253.693:   2422  77  10  533
1477473253.694:   2376  77  10  533
1477473253.694:   2332  77  10  533
1477473253.695:   2306  77  10  533
1477473253.696:   2295  77  10  533
1477473253.696:   2278  77  10  533
1477473253.708:   2236  77  10  533
1477473253.709:   2174  77  10  533
1477473253.709:   2120  77  10  533
1477473253.710:   2100  77  10  533
1477473253.711:   2113  77  10  533
1477473253.711:   2136  77  10  533
1477473253.712:   2149  77  10  533
1477473253.713:   2160  77  10  533
1477473253.713:   2189  77  10  533
1477473253.714:   2237  77  10  533
1477473253.725:   2284  77  10  533
1477473253.726:   2313  77  10  533
1477473253.728:   2337  77  10  533
1477473253.728:   2382  77  10  533
1477473253.729:   2452  77  10  533
1477473253.730:   2515  77  10  533
1477473253.730:   2545  77  10  533
1477473253.731:   2557  77  10  533
1477473253.732:   2599  77  10  533
1477473253.732:   2694  77  10  533
1477473253.743:   2806  77  10  533
1477473253.744:   2872  77  10  533
1477473253.745:   2867  77  10  533
1477473253.745:   2826  77  10  533
1477473253.746:   2804  77  10  533
1477473253.746:   2814  77  10  533
1477473253.747:   2818  77  10  533
1477473253.748:   2770  77  10  533
1477473253.749:   2669  77  10  533
1477473253.750:   2563  77  10  533
1477473253.750:   2495  77  10  533
1477473253.754:   2463  77  10  533
1477473253.755:   2425  77  10  533
1477473253.755:   2352  77  10  533
1477473253.756:   2263  77  10  533
1477473253.757:   2202  77  10  533
1477473253.757:   2193  77  10  533
1477473253.758:   2204  77  10  533
1477473253.759:   2185  77  10  533
1477473253.759:   2124  77  10  533
1477473253.759:   2062  77  10  533
1477473253.760:   2046  77  10  533
1477473253.761:   2078  77  10  533
1477473253.765:   2111  77  10  533
1477473253.782:   2103  77  10  533
1477473253.783:   2063  77  10  533
1477473253.783:   2034  77  10  533
1477473253.784:   2038  77  10  533
1477473253.784:   2048  77  10  533
1477473253.784:   2029  77  10  533
1477473253.785:   1979  77  10  533
1477473253.787:   1936  77  10  533
1477473253.803:   1925  77  10  533
1477473253.803:   1931  77  10  533
1477473253.805:   1925  77  10  533
1477473253.807:   1904  77  10  533
1477473253.818:   1890  77  10  533
1477473253.818:   1898  77  10  533
1477473253.820:   1907  77  10  533
1477473253.821:   1887  77  10  533
1477473253.823:   1827  77  10  533
1477473253.823:   1749  77  10  533
1477473253.823:   1675  77  10  533
1477473253.823:   1609  77  10  533
1477473253.823:   1548  77  10  533
1477473253.824:   1493  77  10  533
1477473253.839:   1448  77  10  533
1477473253.901:   1414  77  10  533
1477473253.908:   1390  77  10  533
1477473253.908:   1380  77  10  533
1477473253.909:   1387  77  10  533
1477473253.909:   1402  77  10  533
1477473253.910:   1408  77  10  533
1477473253.910:   1394  77  10  533
1477473253.910:   1368  77  10  533
1477473253.910:   1341  77  10  533
1477473253.910:   1316  77  10  533
1477473253.910:   1285  77  10  533
1477473253.911:   1248  77  10  533
1477473253.911:   1216  77  10  533
1477473253.911:   1200  77  10  533
1477473253.911:   1194  77  10  533
1477473253.912:   1186  77  10  533
1477473253.912:   1173  77  10  533
1477473253.912:   1164  77  10  533
1477473253.912:   1173  77  10  533
1477473253.912:   1210  77  10  533
1477473253.912:   1269  77  10  533
1477473253.913:   1327  77  10  533
1477473253.913:   1364  77  10  533
1477473253.913:   1379  77  10  533
1477473253.913:   1396  77  10  533
1477473253.913:   1438  77  10  533
1477473253.913:   1500  77  10  533
1477473253.913:   1555  77  10  533
1477473253.914:   1583  77  10  533
1477473253.914:   1603  77  10  533
1477473253.914:   1645  77  10  533
1477473253.914:   1718  77  10  533
1477473253.914:   1795  77  10  533
1477473253.914:   1852  77  10  533
1477473253.915:   1894  77  10  533
1477473253.915:   1943  77  10  533
1477473253.915:   2003  77  10  533
1477473253.915:   2056  77  10  533
1477473253.923:   2086  77  10  533
1477473253.928:   2104  77  10  533
1477473253.929:   2138  77  10  533
1477473253.929:   2196  77  10  533
1477473253.929:   2261  77  10  533
1477473253.929:   2308  77  10  533
1477473253.930:   2334  77  10  533
1477473253.930:   2358  77  10  533
1477473253.930:   2398  77  10  533
1477473253.930:   2452  77  10  533
1477473253.930:   2504  77  10  533
1477473253.930:   2535  77  10  533
1477473253.930:   2546  77  10  533
1477473253.932:   2555  77  10  533
1477473253.932:   2572  77  10  533
1477473253.933:   2590  77  10  533
1477473253.933:   2598  77  10  533
1477473253.933:   2598  77  10  533
1477473253.936:   2601  77  10  533
1477473253.947:   2608  77  10  533
1477473253.948:   2602  77  10  533
1477473253.948:   2576  77  10  533
1477473253.948:   2553  77  10  533
1477473253.948:   2555  77  10  533
1477473253.948:   2573  77  10  533
1477473253.948:   2570  77  10  533
1477473253.948:   2534  77  10  533
1477473253.949:   2503  77  10  533
1477473253.949:   2522  77  10  533
1477473253.949:   2578  77  10  533
1477473253.949:   2612  77  10  533
1477473253.949:   2604  77  10  533
1477473253.951:   2610  77  10  533
1477473253.951:   2685  77  10  533
1477473253.952:   2803  77  10  533
1477473253.954:   2874  77  10  533
1477473253.955:   2850  77  10  533
1477473253.958:   2783  77  10  533
1477473253.959:   2753  77  10  533
1477473253.960:   2765  77  10  533
1477473253.965:   2755  77  10  533
1477473253.967:   2684  77  10  533
1477473253.975:   2590  77  10  533
1477473253.991:   2526  77  10  533
1477473253.991:   2485  77  10  533
1477473253.991:   2414  77  10  533
1477473253.991:   2297  77  10  533
1477473253.991:   2177  77  10  533
1477473253.991:   2098  77  10  533
1477473254.000:   2027  77  10  533
1477473254.001:   1903  77  10  533
1477473254.010:   1714  77  10  533
1477473254.010:   1522  77  10  533
1477473254.010:   1392  77  10  533
1477473254.011:   1326  77  10  533
1477473254.013:   1271  77  10  533
1477473254.013:   1193  77  10  533
1477473254.020:   1111  77  10  533
1477473254.020:   1063  77  10  533
1477473254.031:   1059  77  10  533
1477473254.031:   1083  77  10  533
1477473254.031:   1116  77  10  533
1477473254.031:   1148  77  10  533
1477473254.031:   1172  77  10  533
1477473254.032:   1181  77  10  533
1477473254.032:   1177  77  10  533
1477473254.032:   1176  77  10  533
1477473254.032:   1182  77  10  533
1477473254.032:   1186  77  10  533
1477473254.032:   1174  77  10  533
1477473254.032:   1155  77  10  533
1477473254.032:   1148  77  10  533
1477473254.033:   1154  77  10  533
1477473254.033:   1156  77  10  533
1477473254.033:   1140  77  10  533
1477473254.035:   1115  77  10  533
1477473254.036:   1103  77  10  533
1477473254.038:   1101  77  10  533
1477473254.039:   1081  77  10  533
1477473254.041:   1030  77  10  533
1477473254.041:    972  77  10  533
1477473254.043:    953  77  10  533
1477473254.045:    988  77  10  533
1477473254.054:   1046  77  10  533
1477473254.054:   1081  77  10  533
1477473254.054:   1086  77  10  533
1477473254.054:   1097  77  10  533
1477473254.055:   1149  77  10  533
1477473254.056:   1240  77  10  533
1477473254.058:   1321  77  10  533
1477473254.059:   1351  77  10  533
1477473254.063:   1338  77  10  533
1477473254.064:   1327  77  10  533
1477473254.068:   1360  77  10  533
1477473254.068:   1426  77  10  533
1477473254.089:   1484  77  10  533
1477473254.089:   1502  77  10  533
1477473254.090:   1490  77  10  533
1477473254.091:   1486  77  10  533
1477473254.092:   1511  77  10  533
1477473254.092:   1551  77  10  533
1477473254.093:   1566  77  10  533
1477473254.094:   1537  77  10  533
1477473254.094:   1487  77  10  533
1477473254.095:   1471  77  10  533
1477473254.096:   1523  77  10  533
1477473254.097:   1632  77  10  533
1477473254.108:   1764  77  10  533
1477473254.109:   1930  77  10  533
1477473254.110:   2214  77  10  533
1477473254.110:   2703  77  10  533
1477473254.111:   3386  77  10  533
1477473254.112:   4142  77  10  533
1477473254.112:   4821  77  10  533
1477473254.113:   5348  77  10  533
1477473254.114:   5736  77  10  533
1477473254.115:   6020  77  10  533
1477473254.129:   6195  77  10  533
1477473254.129:   6201  77  10  533
1477473254.129:   5952  77  10  533
1477473254.129:   5380  77  10  533
1477473254.129:   4501  77  10  533
1477473254.130:   3444  77  10  533
1477473254.130:   2395  77  10  533
1477473254.130:   1447  77  10  533
1477473254.130:    520  77  10  533
1477473254.133:   -525  77  10  533
1477473254.133:  -1676  77  10  533
1477473254.134:  -2713  77  10  533
1477473254.136:  -3395  77  10  533
1477473254.138:  -3694  77  10  533
1477473254.142:  -3786  77  10  533
1477473254.142:  -3824  77  10  533
1477473254.150:  -3772  77  10  533
1477473254.150:  -3487  77  10  533
1477473254.150:  -2936  77  10  533
1477473254.150:  -2248  77  10  533
1477473254.151:  -1587  77  10  533
1477473254.156:   -993  77  10  533
1477473254.156:   -417  77  10  533
1477473254.158:    151  77  10  533
1477473254.173:    639  77  10  533
1477473254.173:    973  77  10  533
1477473254.174:   1167  77  10  533
1477473254.174:   1300  77  10  533
1477473254.174:   1432  77  10  533
1477473254.175:   1561  77  10  533
1477473254.175:   1656  77  10  533
1477473254.180:   1708  77  10  533
1477473254.181:   1734  77  10  533
1477473254.188:   1761  77  10  533
1477473254.189:   1810  77  10  533
1477473254.191:   1877  77  10  533
1477473254.191:   1943  77  10  533
1477473254.193:   1981  77  10  533
1477473254.194:   1992  77  10  533
1477473254.194:   2009  77  10  533
1477473254.195:   2072  77  10  533
1477473254.199:   2185  77  10  533
1477473254.215:   2303  77  10  533
1477473254.215:   2378  77  10  533
1477473254.215:   2405  77  10  533
1477473254.215:   2422  77  10  533
1477473254.216:   2460  77  10  533
1477473254.216:   2513  77  10  533
1477473254.216:   2554  77  10  533
1477473254.216:   2576  77  10  533
1477473254.216:   2596  77  10  533
1477473254.217:   2629  77  10  533
1477473254.225:   2658  77  10  533
1477473254.228:   2645  77  10  533
1477473254.236:   2573  77  10  533
1477473254.236:   2472  77  10  533
1477473254.236:   2393  77  10  533
1477473254.236:   2355  77  10  533
1477473254.236:   2326  77  10  533
1477473254.237:   2264  77  10  533
1477473254.237:   2171  77  10  533
1477473254.237:   2096  77  10  533
1477473254.237:   2084  77  10  533
1477473254.237:   2120  77  10  533
1477473254.238:   2143  77  10  533
1477473254.243:   2119  77  10  533
1477473254.244:   2073  77  10  533
1477473254.244:   2058  77  10  533
1477473254.246:   2095  77  10  533
1477473254.252:   2155  77  10  533
1477473254.258:   2206  77  10  533
1477473254.258:   2247  77  10  533
1477473254.258:   2303  77  10  533
1477473254.258:   2388  77  10  533
1477473254.259:   2493  77  10  533
1477473254.261:   2596  77  10  533
1477473254.262:   2687  77  10  533
1477473254.272:   2767  77  10  533
1477473254.272:   2846  77  10  533
1477473254.274:   2928  77  10  533
1477473254.275:   3013  77  10  533
1477473254.276:   3090  77  10  533
1477473254.278:   3147  77  10  533
1477473254.279:   3182  78  10  581
1477473254.279:   3219  78  10  581
1477473254.282:   3287  78  10  581
1477473254.288:   3397  78  10  581
1477473254.289:   3524  78  10  581
1477473254.300:   3637  78  10  581
1477473254.301:   3735  78  10  581
1477473254.302:   3842  78  10  581
1477473254.303:   3978  78  10  581
1477473254.304:   4130  78  10  581
1477473254.304:   4259  78  10  581
1477473254.305:   4344  78  10  581
1477473254.305:   4401  78  10  581
1477473254.305:   4461  78  10  581
1477473254.306:   4539  78  10  581
1477473254.306:   4621  78  10  581
1477473254.308:   4688  78  10  581
1477473254.320:   4739  78  10  581
1477473254.320:   4791  78  10  581
1477473254.321:   4854  78  10  581
1477473254.321:   4916  78  10  581
1477473254.321:   4962  78  10  581
1477473254.321:   4984  78  10  581
1477473254.323:   4990  78  10  581
1477473254.324:   4994  78  10  581
1477473254.326:   5006  78  10  581
1477473254.327:   5031  78  10  581
1477473254.328:   5063  78  10  581
1477473254.330:   5083  78  10  581
1477473254.333:   5075  78  10  581
1477473254.335:   5046  78  10  581
1477473254.344:   5030  78  10  581
1477473254.345:   5053  78  10  581
1477473254.346:   5106  78  10  581
1477473254.346:   5143  78  10  581
1477473254.347:   5136  78  10  581
1477473254.348:   5102  78  10  581
1477473254.348:   5083  78  10  581
1477473254.355:   5097  78  10  581
1477473254.364:   5118  78  10  581
1477473254.365:   5102  78  10  581
1477473254.366:   5037  78  10  581
1477473254.366:   4949  78  10  581
1477473254.368:   4869  78  10  581
1477473254.368:   4806  78  10  581
1477473254.369:   4750  78  10  581
1477473254.370:   4695  78  10  581
1477473254.370:   4647  78  10  581
1477473254.371:   4615  78  10  581
1477473254.371:   4595  78  10  581
1477473254.377:   4576  78  10  581
1477473254.385:   4551  78  10  581
1477473254.385:   4522  78  10  581
1477473254.386:   4486  78  10  581
1477473254.387:   4438  78  10  581
1477473254.387:   4367  78  10  581
1477473254.389:   4275  78  10  581
1477473254.389:   4175  78  10  581
1477473254.391:   4079  78  10  581
1477473254.391:   3987  78  10  581
1477473254.394:   3894  78  10  581
1477473254.406:   3804  78  10  581
1477473254.407:   3723  78  10  581
1477473254.407:   3655  78  10  581
1477473254.408:   3598  78  10  581
1477473254.408:   3549  78  10  581
1477473254.409:   3513  78  10  581
1477473254.409:   3494  78  10  581
1477473254.410:   3485  78  10  581
1477473254.414:   3475  78  10  581
1477473254.415:   3455  78  10  581
1477473254.429:   3434  78  10  581
1477473254.429:   3426  78  10  581
1477473254.429:   3440  78  10  581
1477473254.429:   3466  78  10  581
1477473254.429:   3491  78  10  581
1477473254.430:   3512  78  10  581
1477473254.431:   3536  78  10  581
1477473254.431:   3569  78  10  581
1477473254.433:   3614  78  10  581
1477473254.434:   3665  78  10  581
1477473254.437:   3717  78  10  581
1477473254.437:   3764  78  10  581
1477473254.439:   3802  78  10  581
1477473254.444:   3835  78  10  581
1477473254.452:   3866  78  10  581
1477473254.453:   3897  78  10  581
1477473254.453:   3931  78  10  581
1477473254.454:   3971  78  10  581
1477473254.454:   4023  78  10  581
1477473254.455:   4083  78  10  581
1477473254.455:   4135  78  10  581
1477473254.458:   4168  78  10  581
1477473254.458:   4197  78  10  581
1477473254.462:   4249  78  10  581
1477473254.472:   4341  78  10  581
1477473254.472:   4454  78  10  581
1477473254.473:   4554  78  10  581
1477473254.474:   4632  78  10  581
1477473254.474:   4709  78  10  581
1477473254.475:   4802  78  10  581
1477473254.476:   4905  78  10  581
1477473254.476:   4989  78  10  581
1477473254.478:   5042  78  10  581
1477473254.480:   5078  78  10  581
1477473254.485:   5114  78  10  581
1477473254.485:   5152  78  10  581
1477473254.502:   5180  78  10  581
1477473254.502:   5195  78  10  581
1477473254.502:   5206  78  10  581
1477473254.502:   5224  78  10  581
1477473254.503:   5236  78  10  581
1477473254.503:   5221  78  10  581
1477473254.503:   5178  78  10  581
1477473254.503:   5134  78  10  581
1477473254.504:   5115  78  10  581
1477473254.505:   5120  78  10  581
1477473254.506:   5121  78  10  581
1477473254.507:   5090  78  10  581
1477473254.512:   5033  78  10  581
1477473254.512:   4983  78  10  581
1477473254.514:   4961  78  10  581
1477473254.515:   4950  78  10  581
1477473254.516:   4914  78  10  581
1477473254.519:   4839  78  10  581
1477473254.523:   4751  78  10  581
1477473254.525:   4685  78  10  581
1477473254.526:   4647  78  10  581
1477473254.527:   4615  78  10  581
1477473254.529:   4573  78  10  581
1477473254.530:   4534  78  10  581
1477473254.535:   4519  78  10  581
1477473254.536:   4532  78  10  581
1477473254.539:   4554  78  10  581
1477473254.539:   4572  78  10  581
1477473254.541:   4592  78  10  581
1477473254.543:   4613  78  10  581
1477473254.544:   4622  78  10  581
1477473254.546:   4605  78  10  581
1477473254.549:   4568  78  10  581
1477473254.553:   4525  78  10  581
1477473254.563:   4479  78  10  581
1477473254.563:   4411  78  10  581
1477473254.563:   4313  78  10  581
1477473254.564:   4209  78  10  581
1477473254.564:   4136  78  10  581
1477473254.564:   4107  78  10  581
1477473254.565:   4098  78  10  581
1477473254.568:   4079  78  10  581
1477473254.570:   4048  78  10  581
1477473254.578:   4025  78  10  581
1477473254.578:   4018  78  10  581
1477473254.580:   4011  78  10  581
1477473254.650:   3981  78  10  581
1477473254.650:   3927  78  10  581
1477473254.652:   3869  78  10  581
1477473254.652:   3826  78  10  581
1477473254.652:   3801  78  10  581
1477473254.652:   3789  78  10  581
1477473254.652:   3792  78  10  581
1477473254.652:   3814  78  10  581
1477473254.653:   3859  78  10  581
1477473254.653:   3921  78  10  581
1477473254.665:   3981  78  10  581
1477473254.665:   4021  78  10  581
1477473254.665:   4037  78  10  581
1477473254.666:   4042  78  10  581
1477473254.666:   4060  78  10  581
1477473254.666:   4096  78  10  581
1477473254.666:   4130  78  10  581
1477473254.667:   4142  78  10  581
1477473254.667:   4129  78  10  581
1477473254.667:   4114  78  10  581
1477473254.668:   4120  78  10  581
1477473254.668:   4143  78  10  581
1477473254.668:   4146  78  10  581
1477473254.669:   4100  78  10  581
1477473254.669:   3999  78  10  581
1477473254.669:   3869  78  10  581
1477473254.669:   3735  78  10  581
1477473254.670:   3602  78  10  581
1477473254.670:   3454  78  10  581
1477473254.670:   3270  78  10  581
1477473254.672:   3055  78  10  581
1477473254.672:   2830  78  10  581
1477473254.672:   2625  78  10  581
1477473254.672:   2451  78  10  581
1477473254.672:   2307  78  10  581
1477473254.672:   2189  78  10  581
1477473254.673:   2096  78  10  581
1477473254.673:   2027  78  10  581
1477473254.673:   1974  78  10  581
1477473254.674:   1932  78  10  581
1477473254.689:   1907  78  10  581
1477473254.689:   1906  78  10  581
1477473254.689:   1932  78  10  581
1477473254.690:   1973  78  10  581
1477473254.690:   2015  78  10  581
1477473254.690:   2058  78  10  581
1477473254.690:   2106  78  10  581
1477473254.690:   2162  78  10  581
1477473254.690:   2223  78  10  581
1477473254.691:   2277  78  10  581
1477473254.691:   2318  78  10  581
1477473254.691:   2336  78  10  581
1477473254.691:   2333  78  10  581
1477473254.691:   2322  78  10  581
1477473254.691:   2319  78  10  581
1477473254.692:   2328  78  10  581
1477473254.692:   2334  78  10  581
1477473254.692:   2322  78  10  581
1477473254.693:   2303  78  10  581
1477473254.693:   2298  78  10  581
1477473254.695:   2307  78  10  581
1477473254.696:   2303  78  10  581
1477473254.697:   2267  78  10  581
1477473254.700:   2215  78  10  581
1477473254.701:   2182  78  10  581
1477473254.705:   2181  78  10  581
1477473254.719:   2190  78  10  581
1477473254.719:   2181  78  10  581
1477473254.719:   2160  78  10  581
1477473254.719:   2152  78  10  581
1477473254.719:   2171  78  10  581
1477473254.720:   2204  78  10  581
1477473254.720:   2233  78  10  581
1477473254.723:   2255  78  10  581
1477473254.723:   2287  78  10  581
1477473254.723:   2338  78  10  581
1477473254.726:   2400  78  10  581
1477473254.727:   2456  78  10  581
1477473254.728:   2503  78  10  581
1477473254.730:   2546  78  10  581
1477473254.735:   2591  78  10  581
1477473254.736:   2636  78  10  581
1477473254.748:   2669  78  10  581
1477473254.748:   2685  78  10  581
1477473254.748:   2682  78  10  581
1477473254.748:   2659  78  10  581
1477473254.749:   2615  78  10  581
1477473254.749:   2553  78  10  581
1477473254.751:   2488  78  10  581
1477473254.751:   2434  78  10  581
1477473254.754:   2396  78  10  581
1477473254.756:   2365  78  10  581
1477473254.757:   2338  78  10  581
1477473254.758:   2319  78  10  581
1477473254.763:   2318  78  10  581
1477473254.763:   2335  78  10  581
1477473254.765:   2362  78  10  581
1477473254.766:   2391  78  10  581
1477473254.777:   2415  78  10  581
1477473254.777:   2429  78  10  581
1477473254.778:   2421  78  10  581
1477473254.778:   2388  78  10  581
1477473254.779:   2342  78  10  581
1477473254.780:   2307  78  10  581
1477473254.782:   2286  78  10  581
1477473254.782:   2267  78  10  581
1477473254.784:   2230  78  10  581
1477473254.785:   2181  78  10  581
1477473254.792:   2146  78  10  581
1477473254.792:   2141  78  10  581
1477473254.801:   2165  78  10  581
1477473254.801:   2197  78  10  581
1477473254.801:   2226  78  10  581
1477473254.801:   2254  78  10  581
1477473254.802:   2290  78  10  581
1477473254.810:   2335  78  10  581
1477473254.811:   2383  78  10  581
1477473254.812:   2424  78  10  581
1477473254.814:   2451  78  10  581
1477473254.815:   2464  78  10  581
1477473254.826:   2469  78  10  581
1477473254.826:   2469  78  10  581
1477473254.838:   2464  78  10  581
1477473254.838:   2450  78  10  581
1477473254.838:   2425  78  10  581
1477473254.838:   2401  78  10  581
1477473254.838:   2394  78  10  581
1477473254.839:   2410  78  10  581
1477473254.839:   2444  78  10  581
1477473254.839:   2487  78  10  581
1477473254.839:   2533  78  10  581
1477473254.839:   2588  78  10  581
1477473254.839:   2656  78  10  581
1477473254.840:   2728  78  10  581
1477473254.844:   2788  78  10  581
1477473254.845:   2827  78  10  581
1477473254.845:   2855  78  10  581
1477473254.846:   2894  78  10  581
1477473254.848:   2949  78  10  581
1477473254.850:   3004  78  10  581
1477473254.865:   3047  78  10  581
1477473254.866:   3091  78  10  581
1477473254.866:   3167  78  10  581
1477473254.866:   3294  78  10  581
1477473254.867:   3478  78  10  581
1477473254.899:   3746  78  10  581
1477473254.901:   4151  78  10  581
1477473254.901:   4726  78  10  581
1477473254.902:   5428  78  10  581
1477473254.908:   6154  78  10  581
1477473254.923:   6786  78  10  581
1477473254.923:   7258  78  10  581
1477473254.923:   7568  78  10  581
1477473254.924:   7749  78  10  581
1477473254.924:   7822  78  10  581
1477473254.924:   7744  78  10  581
1477473254.925:   7409  78  10  581
1477473254.925:   6721  78  10  581
1477473254.925:   5705  78  10  581
1477473254.926:   4546  78  10  581
1477473254.926:   3448  78  10  581
1477473254.926:   2459  78  10  581
1477473254.926:   1448  78  10  581
1477473254.928:    298  78  10  581
1477473254.928:   -897  78  10  581
1477473254.928:  -1878  78  10  581
1477473254.929:  -2457  78  10  581
1477473254.929:  -2680  78  10  581
1477473254.929:  -2730  78  10  581
1477473254.929:  -2706  78  10  581
1477473254.929:  -2549  78  10  581
1477473254.929:  -2167  78  10  581
1477473254.930:  -1588  78  10  581
1477473254.930:   -944  78  10  581
1477473254.930:   -334  78  10  581
1477473254.930:    251  78  10  581
1477473254.930:    849  78  10  581
1477473254.931:   1427  78  10  581
1477473254.931:   1891  78  10  581
1477473254.931:   2199  78  10  581
1477473254.931:   2416  78  10  581
1477473254.931:   2643  78  10  581
1477473254.937:   2909  78  10  581
1477473254.939:   3147  78  10  581
1477473254.945:   3287  78  10  581
1477473254.945:   3346  78  10  581
1477473254.945:   3405  78  10  581
1477473254.945:   3515  78  10  581
1477473254.946:   3635  78  10  581
1477473254.947:   3695  78  10  581
1477473254.949:   3687  78  10  581
1477473254.953:   3686  78  10  581
1477473254.956:   3758  78  10  581
1477473254.956:   3893  78  10  581
1477473254.957:   4020  78  10  581
1477473254.959:   4094  78  10  581
1477473254.967:   4135  78  10  581
1477473254.968:   4185  78  10  581
1477473254.968:   4253  78  10  581
1477473254.979:   4304  78  10  581
1477473254.992:   4311  78  10  581
1477473254.994:   4290  78  10  581
1477473254.994:   4282  78  10  581
1477473254.998:   4320  78  10  581
1477473255.007:   4398  78  10  581
1477473255.007:   4484  78  10  581
1477473255.013:   4550  78  10  581
1477473255.013:   4592  78  10  581
1477473255.013:   4621  78  10  581
1477473255.013:   4650  78  10  581
1477473255.014:   4678  78  10  581
1477473255.014:   4698  78  10  581
1477473255.015:   4703  78  10  581
1477473255.015:   4697  78  10  581
1477473255.015:   4685  78  10  581
1477473255.015:   4665  78  10  581
1477473255.015:   4631  78  10  581
1477473255.016:   4585  78  10  581
1477473255.020:   4541  78  10  581
1477473255.020:   4509  78  10  581
1477473255.021:   4495  78  10  581
1477473255.021:   4491  78  10  581
1477473255.021:   4492  78  10  581
1477473255.021:   4492  78  10  581
1477473255.021:   4489  78  10  581
1477473255.022:   4482  78  10  581
1477473255.034:   4475  78  10  581
1477473255.034:   4475  78  10  581
1477473255.034:   4492  78  10  581
1477473255.034:   4529  78  10  581
1477473255.034:   4583  78  10  581
1477473255.034:   4647  78  10  581
1477473255.035:   4716  78  10  581
1477473255.035:   4786  78  10  581
1477473255.035:   4863  78  10  581
1477473255.037:   4951  78  10  581
1477473255.038:   5049  78  10  581
1477473255.043:   5142  78  10  641
1477473255.044:   5222  78  10  641
1477473255.045:   5294  78  10  641
1477473255.046:   5373  78  10  641
1477473255.049:   5456  78  10  641
1477473255.052:   5527  78  10  641
1477473255.052:   5572  78  10  641
1477473255.060:   5600  78  10  641
1477473255.061:   5634  78  10  641
1477473255.061:   5682  78  10  641
1477473255.062:   5723  78  10  641
1477473255.063:   5740  78  10  641
1477473255.065:   5740  78  10  641
1477473255.069:   5755  78  10  641
1477473255.070:   5803  78  10  641
1477473255.072:   5872  78  10  641
1477473255.075:   5931  78  10  641
1477473255.076:   5964  78  10  641
1477473255.079:   5979  78  10  641
1477473255.079:   5996  78  10  641
1477473255.082:   6028  78  10  641
1477473255.084:   6079  78  10  641
1477473255.084:   6144  78  10  641
1477473255.088:   6214  78  10  641
1477473255.092:   6277  78  10  641
1477473255.100:   6329  78  10  641
1477473255.104:   6374  78  10  641
1477473255.111:   6420  78  10  641
1477473255.116:   6463  78  10  641
1477473255.116:   6499  78  10  641
1477473255.120:   6528  78  10  641
1477473255.131:   6553  78  10  641
1477473255.131:   6576  78  10  641
1477473255.131:   6594  78  10  641
1477473255.131:   6601  78  10  641
1477473255.131:   6600  78  10  641
1477473255.131:   6597  78  10  641
1477473255.132:   6595  78  10  641
1477473255.132:   6587  78  10  641
1477473255.132:   6568  78  10  641
1477473255.132:   6541  78  10  641
1477473255.132:   6514  78  10  641
1477473255.132:   6489  78  10  641
1477473255.132:   6462  78  10  641
1477473255.133:   6430  78  10  641
1477473255.133:   6399  78  10  641
1477473255.137:   6377  78  10  641
1477473255.138:   6365  78  10  641
1477473255.138:   6347  78  10  641
1477473255.138:   6314  78  10  641
1477473255.138:   6269  78  10  641
1477473255.147:   6223  78  10  641
1477473255.149:   6183  78  10  641
1477473255.163:   6141  78  10  641
1477473255.164:   6083  78  10  641
1477473255.164:   6006  78  10  641
1477473255.164:   5916  78  10  641
1477473255.164:   5823  78  10  641
1477473255.164:   5727  78  10  641
1477473255.164:   5629  78  10  641
1477473255.165:   5535  78  10  641
1477473255.165:   5451  78  10  641
1477473255.165:   5379  78  10  641
1477473255.169:   5307  78  10  641
1477473255.170:   5222  78  10  641
1477473255.170:   5126  78  10  641
1477473255.175:   5031  78  10  641
1477473255.176:   4946  78  10  641
1477473255.181:   4859  78  10  641
1477473255.182:   4748  78  10  641
1477473255.184:   4603  78  10  641
1477473255.198:   4439  78  10  641
1477473255.199:   4288  78  10  641
1477473255.199:   4171  78  10  641
1477473255.202:   4082  78  10  641
1477473255.202:   3996  78  10  641
1477473255.203:   3898  78  10  641
1477473255.205:   3793  78  10  641
1477473255.206:   3714  78  10  641
1477473255.209:   3682  78  10  641
1477473255.210:   3691  78  10  641
1477473255.222:   3707  78  10  641
1477473255.222:   3705  78  10  641
1477473255.223:   3688  78  10  641
1477473255.223:   3685  78  10  641
1477473255.223:   3710  78  10  641
1477473255.223:   3746  78  10  641
1477473255.223:   3754  78  10  641
1477473255.223:   3714  78  10  641
1477473255.223:   3640  78  10  641
1477473255.224:   3562  78  10  641
1477473255.224:   3489  78  10  641
1477473255.226:   3408  78  10  641
1477473255.228:   3305  78  10  641
1477473255.228:   3195  78  10  641
1477473255.236:   3108  78  10  641
1477473255.237:   3059  78  10  641
1477473255.248:   3028  78  10  641
1477473255.248:   2983  78  10  641
1477473255.248:   2920  78  10  641
1477473255.249:   2860  78  10  641
1477473255.250:   2823  78  10  641
1477473255.258:   2801  78  10  641
1477473255.261:   2763  78  10  641
1477473255.262:   2695  78  10  641
1477473255.262:   2602  78  10  641
1477473255.262:   2497  78  10  641
1477473255.263:   2380  78  10  641
1477473255.264:   2246  78  10  641
1477473255.264:   2102  78  10  641
1477473255.264:   1968  78  10  641
1477473255.265:   1853  78  10  641
1477473255.269:   1747  78  10  641
1477473255.281:   1642  78  10  641
1477473255.281:   1551  78  10  641
1477473255.282:   1501  78  10  641
1477473255.282:   1513  78  10  641
1477473255.282:   1571  78  10  641
1477473255.283:   1645  78  10  641
1477473255.284:   1707  78  10  641
1477473255.286:   1753  78  10  641
1477473255.293:   1795  78  10  641
1477473255.293:   1840  78  10  641
1477473255.304:   1884  78  10  641
1477473255.305:   1912  78  10  641
1477473255.305:   1908  78  10  641
1477473255.306:   1868  78  10  641
1477473255.306:   1800  78  10  641
1477473255.307:   1727  78  10  641
1477473255.307:   1671  78  10  641
1477473255.307:   1629  78  10  641
1477473255.308:   1583  78  10  641
1477473255.312:   1519  78  10  641
1477473255.312:   1451  78  10  641
1477473255.314:   1403  78  10  641
1477473255.317:   1385  78  10  641
1477473255.319:   1377  78  10  641
1477473255.321:   1350  78  10  641
1477473255.321:   1304  78  10  641
1477473255.335:   1263  78  10  641
1477473255.335:   1247  78  10  641
1477473255.336:   1248  78  10  641
1477473255.336:   1245  78  10  641
1477473255.337:   1230  78  10  641
1477473255.337:   1217  78  10  641
1477473255.337:   1223  78  10  641
1477473255.337:   1247  78  10  641
1477473255.338:   1275  78  10  641
1477473255.338:   1302  78  10  641
1477473255.338:   1326  78  10  641
1477473255.338:   1341  78  10  641
1477473255.338:   1339  78  10  641
1477473255.340:   1323  78  10  641
1477473255.403:   1321  78  10  641
1477473255.404:   1353  78  10  641
1477473255.404:   1417  78  10  641
1477473255.404:   1485  78  10  641
1477473255.404:   1537  78  10  641
1477473255.404:   1584  78  10  641
1477473255.416:   1648  78  10  641
1477473255.416:   1737  78  10  641
1477473255.416:   1833  78  10  641
1477473255.416:   1909  78  10  641
1477473255.416:   1951  78  10  641
1477473255.416:   1973  78  10  641
1477473255.416:   1997  78  10  641
1477473255.417:   2033  78  10  641
1477473255.417:   2073  78  10  641
1477473255.417:   2100  78  10  641
1477473255.417:   2102  78  10  641
1477473255.417:   2088  78  10  641
1477473255.417:   2071  78  10  641
1477473255.417:   2059  78  10  641
1477473255.418:   2050  78  10  641
1477473255.418:   2044  78  10  641
1477473255.418:   2052  78  10  641
1477473255.418:   2083  78  10  641
1477473255.418:   2127  78  10  641
1477473255.418:   2159  78  10  641
1477473255.418:   2169  78  10  641
1477473255.419:   2170  78  10  641
1477473255.419:   2179  78  10  641
1477473255.419:   2191  78  10  641
1477473255.419:   2179  78  10  641
1477473255.419:   2131  78  10  641
1477473255.420:   2065  78  10  641
1477473255.420:   2014  78  10  641
1477473255.420:   1986  78  10  641
1477473255.420:   1963  78  10  641
1477473255.420:   1929  78  10  641
1477473255.420:   1893  78  10  641
1477473255.421:   1885  78  10  641
1477473255.422:   1916  78  10  641
1477473255.424:   1964  78  10  641
1477473255.428:   1998  78  10  641
1477473255.428:   2008  78  10  641
1477473255.429:   2011  78  10  641
1477473255.431:   2026  78  10  641
1477473255.432:   2041  78  10  641
1477473255.436:   2026  78  10  641
1477473255.442:   1965  78  10  641
1477473255.454:   1878  78  10  641
1477473255.454:   1796  78  10  641
1477473255.455:   1735  78  10  641
1477473255.455:   1685  78  10  641
1477473255.455:   1633  78  10  641
1477473255.455:   1579  78  10  641
1477473255.455:   1535  78  10  641
1477473255.455:   1496  78  10  641
1477473255.455:   1444  78  10  641
1477473255.456:   1374  78  10  641
1477473255.456:   1299  78  10  641
1477473255.459:   1244  78  10  641
1477473255.461:   1211  78  10  641
1477473255.464:   1178  78  10  641
1477473255.471:   1122  78  10  641
1477473255.473:   1054  78  10  641
1477473255.487:   1005  78  10  641
1477473255.488:    995  78  10  641
1477473255.488:   1004  78  10  641
1477473255.488:    993  78  10  641
1477473255.488:    952  78  10  641
1477473255.489:    915  78  10  641
1477473255.489:    923  78  10  641
1477473255.490:    982  78  10  641
1477473255.492:   1054  78  10  641
1477473255.493:   1103  78  10  641
1477473255.494:   1136  78  10  641
1477473255.504:   1189  78  10  641
1477473255.509:   1272  78  10  641
1477473255.510:   1356  78  10  641
1477473255.510:   1402  78  10  641
1477473255.510:   1408  78  10  641
1477473255.511:   1405  78  10  641
1477473255.514:   1415  78  10  641
1477473255.515:   1426  78  10  641
1477473255.515:   1420  78  10  641
1477473255.515:   1405  78  10  641
1477473255.516:   1404  78  10  641
1477473255.517:   1422  78  10  641
1477473255.521:   1435  78  10  641
1477473255.521:   1423  78  10  641
1477473255.522:   1400  78  10  641
1477473255.522:   1394  78  10  641
1477473255.527:   1406  78  10  641
1477473255.528:   1401  78  10  641
1477473255.529:   1360  78  10  641
1477473255.531:   1301  78  10  641
1477473255.532:   1254  78  10  641
1477473255.532:   1222  78  10  641
1477473255.534:   1177  78  10  641
1477473255.537:   1099  78  10  641
1477473255.537:   1007  78  10  641
1477473255.539:    937  78  10  641
1477473255.540:    906  78  10  641
1477473255.553:    893  78  10  641
1477473255.553:    871  78  10  641
1477473255.554:    841  78  10  641
1477473255.554:    830  78  10  641
1477473255.555:    855  78  10  641
1477473255.555:    905  78  10  641
1477473255.556:    947  78  10  641
1477473255.556:    956  78  10  641
1477473255.558:    937  78  10  641
1477473255.560:    911  78  10  641
1477473255.572:    896  78  10  641
1477473255.573:    887  78  10  641
1477473255.573:    872  78  10  641
1477473255.573:    841  78  10  641
1477473255.574:    802  78  10  641
1477473255.574:    768  78  10  641
1477473255.574:    745  78  10  641
1477473255.575:    730  78  10  641
1477473255.581:    714  78  10  641
1477473255.583:    693  78  10  641
1477473255.584:    667  78  10  641
1477473255.585:    642  78  10  641
1477473255.588:    622  78  10  641
1477473255.589:    606  78  10  641
1477473255.594:    587  78  10  641
1477473255.594:    560  78  10  641
1477473255.595:    530  78  10  641
1477473255.597:    513  78  10  641
1477473255.598:    519  78  10  641
1477473255.606:    540  78  10  641
1477473255.606:    559  78  10  641
1477473255.608:    565  78  10  641
1477473255.609:    569  78  10  641
1477473255.611:    592  78  10  641
1477473255.626:    641  78  10  641
1477473255.626:    698  78  10  641
1477473255.627:    746  78  10  641
1477473255.627:    774  78  10  641
1477473255.627:    788  78  10  641
1477473255.627:    804  78  10  641
1477473255.627:    840  78  10  641
1477473255.627:    903  78  10  641
1477473255.631:    975  78  10  641
1477473255.631:   1036  78  10  641
1477473255.632:   1086  78  10  641
1477473255.637:   1155  78  10  641
1477473255.637:   1272  78  10  641
1477473255.638:   1435  78  10  641
1477473255.638:   1629  78  10  641
1477473255.638:   1883  78  10  641
1477473255.644:   2275  78  10  641
1477473255.644:   2858  78  10  641
1477473255.653:   3582  78  10  641
1477473255.653:   4318  78  10  641
1477473255.653:   4937  78  10  641
1477473255.653:   5389  78  10  641
1477473255.654:   5694  78  10  641
1477473255.654:   5888  78  10  641
1477473255.656:   5975  78  10  641
1477473255.658:   5904  78  10  641
1477473255.659:   5576  78  10  641
1477473255.665:   4904  78  10  641
1477473255.666:   3902  78  10  641
1477473255.667:   2734  78  10  641
1477473255.667:   1611  78  10  641
1477473255.672:    609  78  10  641
1477473255.673:   -378  78  10  641
1477473255.674:  -1487  78  10  641
1477473255.690:  -2671  78  10  641
1477473255.690:  -3701  78  10  641
1477473255.690:  -4368  78  10  641
1477473255.690:  -4667  78  10  641
1477473255.691:  -4746  78  10  641
1477473255.691:  -4718  78  10  641
1477473255.692:  -4555  78  10  641
1477473255.694:  -4185  78  10  641
1477473255.697:  -3624  78  10  641
1477473255.698:  -2982  78  10  641
1477473255.698:  -2348  78  10  641
1477473255.698:  -1731  78  10  641
1477473255.712:  -1111  78  10  641
1477473255.712:   -520  78  10  641
1477473255.712:    -35  78  10  641
1477473255.713:    299  78  10  641
1477473255.714:    516  78  10  641
1477473255.714:    688  78  10  641
1477473255.714:    860  78  10  641
1477473255.715:   1021  78  10  641
1477473255.715:   1139  78  10  641
1477473255.721:   1207  78  10  641
1477473255.733:   1239  78  10  641
1477473255.733:   1257  78  10  641
1477473255.734:   1264  78  10  641
1477473255.734:   1255  78  10  641
1477473255.734:   1241  78  10  641
1477473255.735:   1240  78  10  641
1477473255.735:   1261  78  10  641
1477473255.735:   1284  78  10  641
1477473255.736:   1288  78  10  641
1477473255.748:   1275  78  10  641
1477473255.760:   1266  78  10  641
1477473255.760:   1269  78  10  641
1477473255.761:   1264  78  10  641
1477473255.761:   1219  78  10  641
1477473255.761:   1137  78  10  641
1477473255.761:   1055  78  10  641
1477473255.762:   1012  78  10  641
1477473255.762:   1011  78  10  641
1477473255.763:   1016  78  10  641
1477473255.763:    996  78  10  641
1477473255.763:    953  78  10  641
1477473255.763:    911  78  10  641
1477473255.764:    890  78  10  641
1477473255.765:    884  78  10  641
1477473255.768:    881  78  10  641
1477473255.770:    885  78  10  641
1477473255.778:    909  78  10  641
1477473255.779:    963  78  10  641
1477473255.779:   1030  78  10  641
1477473255.779:   1088  78  10  641
1477473255.780:   1129  78  10  641
1477473255.780:   1166  78  10  641
1477473255.781:   1211  78  10  641
1477473255.784:   1258  78  10  641
1477473255.789:   1296  78  10  641
1477473255.790:   1325  78  10  641
1477473255.798:   1362  78  10  641
1477473255.799:   1411  78  10  641
1477473255.799:   1455  78  10  641
1477473255.799:   1481  78  10  641
1477473255.799:   1495  78  10  641
1477473255.802:   1524  78  10  641
1477473255.802:   1582  78  10  641
1477473255.804:   1645  78  10  641
1477473255.805:   1688  78  10  702
1477473255.808:   1713  78  10  702
1477473255.819:   1752  78  10  702
1477473255.819:   1822  78  10  702
1477473255.819:   1899  78  10  702
1477473255.820:   1946  78  10  702
1477473255.820:   1963  78  10  702
1477473255.820:   1984  78  10  702
1477473255.820:   2041  78  10  702
1477473255.823:   2122  78  10  702
1477473255.825:   2189  78  10  702
1477473255.830:   2227  78  10  702
1477473255.831:   2262  78  10  702
1477473255.834:   2324  78  10  702
1477473255.835:   2417  78  10  702
1477473255.840:   2508  78  10  702
1477473255.856:   2568  78  10  702
1477473255.856:   2593  78  10  702
1477473255.856:   2602  78  10  702
1477473255.856:   2615  78  10  702
1477473255.857:   2638  78  10  702
1477473255.857:   2666  78  10  702
1477473255.857:   2692  78  10  702
1477473255.857:   2710  78  10  702
1477473255.857:   2721  78  10  702
1477473255.858:   2735  78  10  702
1477473255.858:   2761  78  10  702
1477473255.862:   2800  78  10  702
1477473255.863:   2841  78  10  702
1477473255.864:   2871  78  10  702
1477473255.865:   2890  78  10  702
1477473255.868:   2908  78  10  702
1477473255.881:   2934  78  10  702
1477473255.881:   2960  78  10  702
1477473255.881:   2972  78  10  702
1477473255.881:   2966  78  10  702
1477473255.881:   2952  78  10  702
1477473255.882:   2953  78  10  702
1477473255.882:   2976  78  10  702
1477473255.888:   3008  78  10  702
1477473255.888:   3029  78  10  702
1477473255.889:   3024  78  10  702
1477473255.890:   2996  78  10  702
1477473255.891:   2955  78  10  702
1477473255.894:   2908  78  10  702
1477473255.894:   2851  78  10  702
1477473255.899:   2785  78  10  702
1477473255.900:   2715  78  10  702
1477473255.901:   2644  78  10  702
1477473255.903:   2579  78  10  702
1477473255.939:   2522  78  10  702
1477473255.940:   2482  78  10  702
1477473255.948:   2467  78  10  702
1477473255.948:   2478  78  10  702
1477473255.949:   2493  78  10  702
1477473255.949:   2492  78  10  702
1477473255.949:   2469  78  10  702
1477473255.949:   2440  78  10  702
1477473255.949:   2419  78  10  702
1477473255.950:   2399  78  10  702
1477473255.950:   2362  78  10  702
1477473255.952:   2310  78  10  702
1477473255.952:   2263  78  10  702
1477473255.952:   2234  78  10  702
1477473255.952:   2205  78  10  702
1477473255.953:   2141  78  10  702
1477473255.953:   2043  78  10  702
1477473255.953:   1951  78  10  702
1477473255.953:   1894  78  10  702
1477473255.953:   1847  78  10  702
1477473255.954:   1756  78  10  702
1477473255.954:   1605  78  10  702
1477473255.955:   1446  78  10  702
1477473255.957:   1334  78  10  702
1477473255.957:   1260  78  10  702
1477473255.964:   1165  78  10  702
1477473255.964:   1023  78  10  702
1477473255.964:    869  78  10  702
1477473255.965:    755  78  10  702
1477473255.965:    684  78  10  702
1477473255.965:    612  78  10  702
1477473255.967:    510  78  10  702
1477473255.967:    406  78  10  702
1477473255.969:    340  78  10  702
1477473255.985:    316  78  10  702
1477473255.986:    300  78  10  702
1477473255.987:    262  78  10  702
1477473255.987:    208  78  10  702
1477473255.988:    161  78  10  702
1477473255.989:    130  78  10  702
1477473255.990:    110  78  10  702
1477473255.990:     94  78  10  702
1477473255.991:     77  78  10  702
1477473255.991:     60  78  10  702
1477473255.993:     42  78  10  702
1477473255.993:     30  78  10  702
1477473255.994:     34  78  10  702
1477473255.995:     50  78  10  702
1477473256.005:     63  78  10  702
1477473256.005:     68  78  10  702
1477473256.005:     77  78  10  702
1477473256.005:    104  78  10  702
1477473256.006:    130  78  10  702
1477473256.007:    131  78  10  702
1477473256.009:    106  78  10  702
1477473256.014:     85  78  10  702
1477473256.014:     97  78  10  702
1477473256.015:    129  78  10  702
1477473256.017:    144  78  10  702
1477473256.019:    128  78  10  702
1477473256.021:    109  78  10  702
1477473256.023:    124  78  10  702
1477473256.029:    171  78  10  702
1477473256.030:    213  78  10  702
1477473256.030:    223  78  10  702
1477473256.031:    209  78  10  702
1477473256.032:    197  78  10  702
1477473256.035:    196  78  10  702
1477473256.044:    186  78  10  702
1477473256.044:    152  78  10  702
1477473256.044:    108  78  10  702
1477473256.045:     89  78  10  702
1477473256.045:    113  78  10  702
1477473256.049:    168  78  10  702
1477473256.052:    222  78  10  702
1477473256.052:    251  78  10  702
1477473256.062:    257  78  10  702
1477473256.063:    262  78  10  702
1477473256.063:    282  78  10  702
1477473256.063:    314  78  10  702
1477473256.063:    331  78  10  702
1477473256.064:    318  78  10  702
1477473256.064:    285  78  10  702
1477473256.069:    271  78  10  702
1477473256.069:    302  78  10  702
1477473256.075:    365  78  10  702
1477473256.081:    420  78  10  702
1477473256.081:    440  78  10  702
1477473256.082:    434  78  10  702
1477473256.082:    435  78  10  702
1477473256.083:    454  78  10  702
1477473256.083:    472  78  10  702
1477473256.085:    464  78  10  702
1477473256.086:    433  78  10  702
1477473256.088:    403  78  10  702
1477473256.089:    391  78  10  702
1477473256.100:    386  78  10  702
1477473256.100:    371  78  10  702
1477473256.100:    347  78  10  702
1477473256.104:    336  78  10  702
1477473256.106:    348  78  10  702
1477473256.165:    371  78  10  702
1477473256.165:    385  78  10  702
1477473256.165:    394  78  10  702
1477473256.165:    420  78  10  702
1477473256.166:    477  78  10  702
1477473256.166:    545  78  10  702
1477473256.166:    591  78  10  702
1477473256.166:    609  78  10  702
1477473256.166:    619  78  10  702
1477473256.169:    647  78  10  702
1477473256.169:    691  78  10  702
1477473256.169:    729  78  10  702
1477473256.169:    748  78  10  702
1477473256.170:    760  78  10  702
1477473256.170:    788  78  10  702
1477473256.170:    838  78  10  702
1477473256.170:    889  78  10  702
1477473256.170:    920  78  10  702
1477473256.170:    936  78  10  702
1477473256.171:    963  78  10  702
1477473256.172:   1020  78  10  702
1477473256.194:   1096  78  10  702
1477473256.195:   1163  78  10  702
1477473256.204:   1203  78  10  702
1477473256.204:   1226  78  10  702
1477473256.205:   1247  78  10  702
1477473256.205:   1266  78  10  702
1477473256.205:   1268  78  10  702
1477473256.205:   1242  78  10  702
1477473256.206:   1197  78  10  702
1477473256.206:   1156  78  10  702
1477473256.206:   1126  78  10  702
1477473256.206:   1095  78  10  702
1477473256.206:   1052  78  10  702
1477473256.206:   1004  78  10  702
1477473256.207:    965  78  10  702
1477473256.207:    943  78  10  702
1477473256.207:    926  78  10  702
1477473256.207:    908  78  10  702
1477473256.207:    892  78  10  702
1477473256.207:    890  78  10  702
1477473256.208:    902  78  10  702
1477473256.209:    915  78  10  702
1477473256.209:    920  78  10  702
1477473256.209:    924  78  10  702
1477473256.209:    941  78  10  702
1477473256.209:    969  78  10  702
1477473256.209:    990  78  10  702
1477473256.210:    988  78  10  702
1477473256.211:    964  78  10  702
1477473256.211:    941  78  10  702
1477473256.211:    938  78  10  702
1477473256.212:    955  78  10  702
1477473256.212:    978  78  10  702
1477473256.212:    997  78  10  702
1477473256.212:   1014  78  10  702
1477473256.214:   1037  78  10  702
1477473256.215:   1068  78  10  702
1477473256.216:   1104  78  10  702
1477473256.218:   1140  78  10  702
1477473256.221:   1177  78  10  702
1477473256.222:   1219  78  10  702
1477473256.226:   1261  78  10  702
1477473256.228:   1293  78  10  702
1477473256.228:   1308  78  10  702
1477473256.239:   1310  78  10  702
1477473256.239:   1313  78  10  702
1477473256.242:   1326  78  10  702
1477473256.242:   1344  78  10  702
1477473256.244:   1356  78  10  702
1477473256.245:   1359  78  10  702
1477473256.246:   1360  78  10  702
1477473256.251:   1372  78  10  702
1477473256.264:   1394  78  10  702
1477473256.265:   1420  78  10  702
1477473256.265:   1450  78  10  702
1477473256.265:   1494  78  10  702
1477473256.265:   1554  78  10  702
1477473256.265:   1616  78  10  702
1477473256.265:   1663  78  10  702
1477473256.265:   1695  78  10  702
1477473256.266:   1736  78  10  702
1477473256.266:   1806  78  10  702
1477473256.266:   1903  78  10  702
1477473256.267:   2001  78  10  702
1477473256.270:   2081  78  10  702
1477473256.274:   2147  78  10  702
1477473256.274:   2215  78  10  702
1477473256.275:   2292  78  10  702
1477473256.287:   2370  78  10  702
1477473256.288:   2438  78  10  702
1477473256.289:   2498  78  10  702
1477473256.289:   2560  78  10  702
1477473256.290:   2625  78  10  702
1477473256.290:   2685  78  10  702
1477473256.293:   2726  78  10  702
1477473256.294:   2753  78  10  702
1477473256.296:   2771  78  10  702
1477473256.297:   2782  78  10  702
1477473256.303:   2774  78  10  702
1477473256.304:   2737  78  10  702
1477473256.305:   2677  78  10  702
1477473256.306:   2617  78  10  702
1477473256.312:   2571  78  10  702
1477473256.314:   2536  78  10  702
1477473256.314:   2496  78  10  702
1477473256.317:   2443  78  10  702
1477473256.318:   2385  78  10  702
1477473256.318:   2337  78  10  702
1477473256.318:   2308  78  10  702
1477473256.318:   2293  78  10  702
1477473256.324:   2284  78  10  702
1477473256.325:   2270  78  10  702
1477473256.329:   2256  78  10  702
1477473256.330:   2252  78  10  702
1477473256.331:   2268  78  10  702
1477473256.332:   2303  78  10  702
1477473256.337:   2340  78  10  702
1477473256.338:   2360  78  10  702
1477473256.353:   2361  78  10  702
1477473256.354:   2362  78  10  702
1477473256.354:   2382  78  10  702
1477473256.355:   2420  78  10  702
1477473256.356:   2454  78  10  702
1477473256.357:   2464  78  10  702
1477473256.357:   2453  78  10  702
1477473256.358:   2440  78  10  702
1477473256.359:   2442  78  10  702
1477473256.360:   2452  78  10  702
1477473256.374:   2458  78  10  702
1477473256.375:   2453  78  10  702
1477473256.376:   2443  78  10  702
1477473256.377:   2441  78  10  702
1477473256.377:   2449  78  10  702
1477473256.379:   2462  78  10  702
1477473256.379:   2471  78  10  702
1477473256.379:   2475  78  10  702
1477473256.379:   2478  78  10  702
1477473256.380:   2485  78  10  702
1477473256.380:   2501  78  10  702
1477473256.380:   2524  78  10  702
1477473256.382:   2548  78  10  702
1477473256.383:   2571  78  10  702
1477473256.385:   2601  78  10  702
1477473256.386:   2646  78  10  702
1477473256.388:   2708  78  10  702
1477473256.389:   2779  78  10  702
1477473256.390:   2843  78  10  702
1477473256.394:   2889  78  10  702
1477473256.397:   2925  78  10  702
1477473256.398:   2964  78  10  702
1477473256.399:   3013  78  10  702
1477473256.400:   3058  78  10  702
1477473256.401:   3079  78  10  702
1477473256.404:   3082  78  10  702
1477473256.406:   3099  78  10  702
1477473256.411:   3167  78  10  702
1477473256.421:   3280  78  10  702
1477473256.422:   3410  78  10  702
1477473256.422:   3561  78  10  702
1477473256.423:   3814  78  10  702
1477473256.424:   4260  78  10  702
1477473256.426:   4905  78  10  702
1477473256.426:   5639  78  10  702
1477473256.427:   6310  78  10  702
1477473256.427:   6829  78  10  702
1477473256.427:   7193  78  10  702
1477473256.429:   7446  78  10  702
1477473256.432:   7609  78  10  702
1477473256.441:   7655  78  10  702
1477473256.442:   7498  78  10  702
1477473256.442:   7027  78  10  702
1477473256.442:   6191  78  10  702
1477473256.445:   5093  78  10  702
1477473256.449:   3950  78  10  702
1477473256.450:   2922  78  10  702
1477473256.451:   1963  78  10  702
1477473256.465:    911  78  10  702
1477473256.467:   -287  78  10  702
1477473256.467:  -1438  78  10  702
1477473256.467:  -2275  78  10  702
1477473256.467:  -2711  78  10  702
1477473256.467:  -2890  78  10  702
1477473256.468:  -2987  78  10  702
1477473256.468:  -2999  78  10  702
1477473256.468:  -2797  78  10  702
1477473256.468:  -2324  78  10  702
1477473256.470:  -1688  78  10  702
1477473256.471:  -1048  78  10  702
1477473256.472:   -457  78  10  702
1477473256.474:    142  78  10  702
1477473256.476:    783  78  10  702
1477473256.479:   1397  78  10  702
1477473256.480:   1875  78  10  702
1477473256.487:   2186  78  10  702
1477473256.497:   2393  78  10  702
1477473256.498:   2591  78  10  702
1477473256.499:   2812  78  10  702
1477473256.500:   3023  78  10  702
1477473256.500:   3175  78  10  702
1477473256.501:   3262  78  10  702
1477473256.507:   3331  78  10  702
1477473256.507:   3438  78  10  702
1477473256.517:   3590  78  10  702
1477473256.518:   3738  78  10  702
1477473256.518:   3829  78  10  702
1477473256.518:   3876  78  10  702
1477473256.518:   3949  78  10  702
1477473256.519:   4103  78  10  702
1477473256.519:   4309  78  10  702
1477473256.519:   4482  78  10  702
1477473256.519:   4564  78  10  702
1477473256.521:   4581  78  10  702
1477473256.522:   4608  78  10  702
1477473256.528:   4694  78  10  702
1477473256.529:   4817  78  10  702
1477473256.530:   4929  78  10  702
1477473256.533:   5005  78  10  702
1477473256.534:   5058  78  10  702
1477473256.535:   5101  78  10  702
1477473256.539:   5121  78  10  702
1477473256.540:   5097  78  10  702
1477473256.545:   5030  78  10  702
1477473256.558:   4941  78  10  702
1477473256.558:   4860  78  10  702
1477473256.558:   4800  78  10  702
1477473256.559:   4755  78  10  702
1477473256.559:   4717  78  10  702
1477473256.559:   4685  78  10  702
1477473256.559:   4669  78  10  702
1477473256.559:   4674  78  10  702
1477473256.560:   4684  78  10  702
1477473256.561:   4666  78  10  702
1477473256.563:   4593  78  10  702
1477473256.567:   4464  78  10  702
1477473256.567:   4308  78  10  702
1477473256.569:   4158  78  10  702
1477473256.570:   4032  78  10  702
1477473256.572:   3913  78  10  702
1477473256.573:   3775  78  10  702
1477473256.574:   3605  78  10  702
1477473256.578:   3419  78  10  702
1477473256.579:   3250  78  10  702
1477473256.580:   3118  78  10  702
1477473256.581:   3009  78  10  768
1477473256.586:   2892  78  10  768
1477473256.586:   2750  78  10  768
1477473256.587:   2601  78  10  768
1477473256.589:   2478  78  10  768
1477473256.602:   2386  78  10  768
1477473256.602:   2298  78  10  768
1477473256.603:   2190  78  10  768
1477473256.603:   2063  78  10  768
1477473256.603:   1934  78  10  768
1477473256.603:   1811  78  10  768
1477473256.603:   1687  78  10  768
1477473256.605:   1553  78  10  768
1477473256.608:   1407  78  10  768
1477473256.608:   1252  78  10  768
1477473256.612:   1084  78  10  768
1477473256.612:    907  78  10  768
1477473256.614:    741  78  10  768
1477473256.615:    604  78  10  768
1477473256.620:    491  78  10  768
1477473256.621:    374  78  10  768
1477473256.628:    242  78  10  768
1477473256.628:    104  78  10  768
1477473256.628:    -29  78  10  768
1477473256.629:   -165  78  10  768
1477473256.630:   -319  78  10  768
1477473256.634:   -483  78  10  768
1477473256.635:   -629  78  10  768
1477473256.637:   -746  78  10  768
1477473256.641:   -850  78  10  768
1477473256.642:   -961  78  10  768
1477473256.645:  -1072  78  10  768
1477473256.646:  -1151  78  10  768
1477473256.647:  -1183  78  10  768
1477473256.650:  -1186  78  10  768
1477473256.652:  -1200  78  10  768
1477473256.658:  -1246  78  10  768
1477473256.673:  -1322  78  10  768
1477473256.675:  -1411  78  10  768
1477473256.676:  -1495  78  10  768
1477473256.677:  -1562  78  10  768
1477473256.678:  -1613  78  10  768
1477473256.679:  -1661  78  10  768
1477473256.679:  -1721  78  10  768
1477473256.680:  -1789  78  10  768
1477473256.680:  -1846  78  10  768
1477473256.682:  -1872  78  10  768
1477473256.682:  -1884  78  10  768
1477473256.683:  -1909  78  10  768
1477473256.694:  -1960  78  10  768
1477473256.694:  -2023  78  10  768
1477473256.695:  -2077  78  10  768
1477473256.695:  -2126  78  10  768
1477473256.695:  -2183  78  10  768
1477473256.695:  -2250  78  10  768
1477473256.695:  -2314  78  10  768
1477473256.696:  -2364  78  10  768
1477473256.696:  -2413  78  10  768
1477473256.697:  -2477  78  10  768
1477473256.700:  -2557  78  10  768
1477473256.700:  -2637  78  10  768
1477473256.704:  -2708  78  10  768
1477473256.704:  -2782  78  10  768
1477473256.705:  -2871  78  10  768
1477473256.707:  -2967  78  10  768
1477473256.707:  -3049  78  10  768
1477473256.713:  -3108  78  10  768
1477473256.714:  -3167  78  10  768
1477473256.720:  -3250  78  10  768
1477473256.721:  -3362  78  10  768
1477473256.721:  -3480  78  10  768
1477473256.722:  -3580  78  10  768
1477473256.726:  -3664  78  10  768
1477473256.739:  -3755  78  10  768
1477473256.739:  -3862  78  10  768
1477473256.740:  -3974  78  10  768
1477473256.740:  -4072  78  10  768
1477473256.741:  -4149  78  10  768
1477473256.741:  -4210  78  10  768
1477473256.748:  -4261  78  10  768
1477473256.750:  -4309  78  10  768
1477473256.757:  -4354  78  10  768
1477473256.758:  -4394  78  10  768
1477473256.758:  -4425  78  10  768
1477473256.759:  -4449  78  10  768
1477473256.759:  -4468  78  10  768
1477473256.759:  -4488  78  10  768
1477473256.760:  -4502  78  10  768
1477473256.761:  -4493  78  10  768
1477473256.763:  -4452  78  10  768
1477473256.763:  -4391  78  10  768
1477473256.765:  -4332  78  10  768
1477473256.773:  -4270  78  10  768
1477473256.774:  -4183  78  10  768
1477473256.775:  -4052  78  10  768
1477473256.783:  -3892  78  10  768
1477473256.784:  -3739  78  10  768
1477473256.799:  -3617  78  10  768
1477473256.800:  -3508  78  10  768
1477473256.803:  -3387  78  10  768
1477473256.805:  -3252  78  10  768
1477473256.806:  -3129  78  10  768
1477473256.807:  -3038  78  10  768
1477473256.818:  -2977  78  10  768
1477473256.818:  -2929  78  10  768
1477473256.818:  -2890  78  10  768
1477473256.818:  -2864  78  10  768
1477473256.819:  -2853  78  10  768
1477473256.819:  -2848  78  10  768
1477473256.819:  -2844  78  10  768
1477473256.819:  -2846  78  10  768
1477473256.819:  -2862  78  10  768
1477473256.820:  -2887  78  10  768
1477473256.820:  -2901  78  10  768
1477473256.820:  -2891  78  10  768
1477473256.821:  -2861  78  10  768
1477473256.821:  -2827  78  10  768
1477473256.821:  -2809  78  10  768
1477473256.821:  -2819  78  10  768
1477473256.822:  -2852  78  10  768
1477473256.822:  -2898  78  10  768
1477473256.822:  -2942  78  10  768
1477473256.822:  -2985  78  10  768
1477473256.825:  -3039  78  10  768
1477473256.827:  -3116  78  10  768
1477473256.828:  -3217  78  10  768
1477473256.829:  -3326  78  10  768
1477473256.830:  -3424  78  10  768
1477473256.839:  -3502  78  10  768
1477473256.854:  -3564  78  10  768
1477473256.854:  -3623  78  10  768
1477473256.854:  -3690  78  10  768
1477473256.855:  -3765  78  10  768
1477473256.856:  -3835  78  10  768
1477473256.856:  -3884  78  10  768
1477473256.856:  -3917  78  10  768
1477473256.856:  -3955  78  10  768
1477473256.857:  -4009  78  10  768
1477473256.858:  -4064  78  10  768
1477473256.859:  -4094  78  10  768
1477473256.860:  -4097  78  10  768
1477473256.865:  -4105  78  10  768
1477473256.865:  -4145  78  10  768
1477473256.866:  -4199  78  10  768
1477473256.870:  -4221  78  10  768
1477473256.895:  -4197  78  10  768
1477473256.967:  -4166  78  10  768
1477473256.980:  -4176  78  10  768
1477473256.980:  -4226  78  10  768
1477473256.980:  -4268  78  10  768
1477473256.980:  -4265  78  10  768
1477473256.980:  -4241  78  10  768
1477473256.980:  -4235  78  10  768
1477473256.981:  -4251  78  10  768
1477473256.981:  -4247  78  10  768
1477473256.981:  -4192  78  10  768
1477473256.981:  -4114  78  10  768
1477473256.981:  -4069  78  10  768
1477473256.981:  -4079  78  10  768
1477473256.981:  -4098  78  10  768
1477473256.982:  -4076  78  10  768
1477473256.982:  -4018  78  10  768
1477473256.982:  -3982  78  10  768
1477473256.982:  -4009  78  10  768
1477473256.982:  -4075  78  10  768
1477473256.982:  -4119  78  10  768
1477473256.983:  -4116  78  10  768
1477473256.983:  -4092  78  10  768
1477473256.983:  -4087  78  10  768
1477473256.983:  -4105  78  10  768
1477473256.983:  -4115  78  10  768
1477473256.983:  -4097  78  10  768
1477473256.983:  -4070  78  10  768
1477473256.984:  -4063  78  10  768
1477473256.984:  -4068  78  10  768
1477473256.984:  -4049  78  10  768
1477473256.984:  -3994  78  10  768
1477473256.984:  -3928  78  10  768
1477473256.984:  -3882  78  10  768
1477473256.984:  -3860  78  10  768
1477473256.984:  -3836  78  10  768
1477473256.985:  -3797  78  10  768
1477473256.985:  -3756  78  10  768
1477473256.985:  -3721  78  10  768
1477473256.985:  -3674  78  10  768
1477473256.985:  -3599  78  10  768
1477473256.985:  -3512  78  10  768
1477473256.985:  -3460  78  10  768
1477473256.985:  -3456  78  10  768
1477473256.986:  -3456  78  10  768
1477473256.986:  -3410  78  10  768
1477473256.986:  -3322  78  10  768
1477473256.986:  -3255  78  10  768
1477473256.986:  -3252  78  10  768
1477473256.986:  -3277  78  10  768
1477473256.987:  -3249  78  10  768
1477473256.987:  -3132  78  10  768
1477473256.987:  -2971  78  10  768
1477473256.987:  -2832  78  10  768
1477473256.987:  -2736  78  10  768
1477473256.987:  -2650  78  10  768
1477473256.987:  -2544  78  10  768
1477473256.987:  -2427  78  10  768
1477473256.988:  -2335  78  10  768
1477473256.988:  -2285  78  10  768
1477473256.988:  -2262  78  10  768
1477473256.988:  -2241  78  10  768
1477473256.988:  -2218  78  10  768
1477473256.994:  -2204  78  10  768
1477473256.995:  -2203  78  10  768
1477473256.995:  -2191  78  10  768
1477473256.999:  -2144  78  10  768
1477473256.999:  -2064  78  10  768
1477473257.002:  -1983  78  10  768
1477473257.002:  -1927  78  10  768
1477473257.021:  -1886  78  10  768
1477473257.021:  -1824  78  10  768
1477473257.021:  -1728  78  10  768
1477473257.021:  -1626  78  10  768
1477473257.021:  -1562  78  10  768
1477473257.022:  -1545  78  10  768
1477473257.022:  -1536  78  10  768
1477473257.022:  -1498  78  10  768
1477473257.022:  -1434  78  10  768
1477473257.022:  -1378  78  10  768
1477473257.025:  -1348  78  10  768
1477473257.028:  -1328  78  10  768
1477473257.028:  -1286  78  10  768
1477473257.029:  -1206  78  10  768
1477473257.030:  -1103  78  10  768
1477473257.031:   -997  78  10  768
1477473257.034:   -899  78  10  768
1477473257.036:   -803  78  10  768
1477473257.038:   -697  78  10  768
1477473257.043:   -578  78  10  768
1477473257.044:   -465  78  10  768
1477473257.044:   -387  78  10  768
1477473257.046:   -356  78  10  768
1477473257.051:   -350  78  10  768
1477473257.068:   -333  78  10  768
1477473257.068:   -292  78  10  768
1477473257.068:   -248  78  10  768
1477473257.068:   -222  78  10  768
1477473257.068:   -213  78  10  768
1477473257.068:   -189  78  10  768
1477473257.069:   -125  78  10  768
1477473257.069:    -32  78  10  768
1477473257.069:     64  78  10  768
1477473257.069:    146  78  10  768
1477473257.070:    212  78  10  768
1477473257.072:    260  78  10  768
1477473257.075:    280  78  10  768
1477473257.076:    265  78  10  768
1477473257.082:    223  78  10  768
1477473257.083:    175  78  10  768
1477473257.084:    132  78  10  768
1477473257.085:     90  78  10  768
1477473257.089:     39  78  10  768
1477473257.089:    -12  78  10  768
1477473257.102:    -47  78  10  768
1477473257.102:    -60  78  10  768
1477473257.102:    -63  78  10  768
1477473257.102:    -75  78  10  768
1477473257.103:   -100  78  10  768
1477473257.105:   -127  78  10  768
1477473257.105:   -146  78  10  768
1477473257.110:   -159  78  10  768
1477473257.111:   -178  78  10  768
1477473257.111:   -205  78  10  768
1477473257.112:   -228  78  10  768
1477473257.115:   -241  78  10  768
1477473257.128:   -247  78  10  768
1477473257.128:   -248  78  10  768
1477473257.128:   -236  78  10  768
1477473257.128:   -202  78  10  768
1477473257.129:   -153  78  10  768
1477473257.129:   -117  78  10  768
1477473257.129:   -109  78  10  768
1477473257.129:   -108  78  10  768
1477473257.132:    -82  78  10  768
1477473257.135:    -28  78  10  768
1477473257.135:     10  78  10  768
1477473257.136:     -7  78  10  768
1477473257.138:    -72  78  10  768
1477473257.140:   -132  78  10  768
1477473257.145:   -142  78  10  768
1477473257.145:   -110  78  10  768
1477473257.152:    -81  78  10  768
1477473257.158:    -85  78  10  768
1477473257.159:   -110  78  10  768
1477473257.161:   -123  78  10  768
1477473257.161:   -109  78  10  768
1477473257.163:    -80  78  10  768
1477473257.164:    -50  78  10  768
1477473257.166:    -26  78  10  768
1477473257.178:     -4  78  10  768
1477473257.178:     35  78  10  768
1477473257.178:    103  78  10  768
1477473257.192:    194  78  10  768
1477473257.194:    292  78  10  768
1477473257.194:    381  78  10  768
1477473257.196:    463  78  10  768
1477473257.196:    550  78  10  768
1477473257.196:    641  78  10  768
1477473257.199:    716  78  10  768
1477473257.210:    771  78  10  768
1477473257.210:    844  78  10  768
1477473257.210:    982  78  10  768
1477473257.211:   1188  78  10  768
1477473257.212:   1432  78  10  768
1477473257.212:   1716  78  10  768
1477473257.212:   2110  78  10  768
1477473257.212:   2692  78  10  768
1477473257.213:   3446  78  10  768
1477473257.213:   4235  78  10  768
1477473257.213:   4893  78  10  768
1477473257.213:   5336  78  10  768
1477473257.214:   5593  78  10  768
1477473257.214:   5737  78  10  768
1477473257.214:   5786  78  10  768
1477473257.214:   5654  78  10  768
1477473257.215:   5201  78  10  768
1477473257.225:   4362  78  10  768
1477473257.227:   3243  78  10  768
1477473257.227:   2073  78  10  768
1477473257.228:   1029  78  10  768
1477473257.228:     87  78  10  768
1477473257.229:   -906  78  10  768
1477473257.229:  -2010  78  10  768
1477473257.230:  -3055  78  10  768
1477473257.234:  -3779  78  10  768
1477473257.235:  -4088  78  10  768
1477473257.237:  -4140  78  10  768
1477473257.239:  -4152  78  10  768
1477473257.239:  -4174  78  10  768
1477473257.241:  -4066  78  10  768
1477473257.242:  -3701  78  10  768
1477473257.243:  -3130  78  10  768
1477473257.245:  -2525  78  10  768
1477473257.252:  -2015  78  10  768
1477473257.252:  -1594  78  10  768
1477473257.263:  -1179  78  10  768
1477473257.263:   -725  78  10  768
1477473257.263:   -276  78  10  768
1477473257.263:     92  78  10  768
1477473257.263:    348  78  10  768
1477473257.264:    529  78  10  768
1477473257.264:    697  78  10  768
1477473257.266:    886  78  10  768
1477473257.267:   1074  78  10  768
1477473257.274:   1224  78  10  768
1477473257.275:   1331  78  10  768
1477473257.277:   1424  78  10  768
1477473257.283:   1529  78  10  768
1477473257.284:   1626  78  10  768
1477473257.285:   1679  78  10  768
1477473257.286:   1680  78  10  768
1477473257.293:   1669  78  10  768
1477473257.293:   1693  78  10  768
1477473257.307:   1752  78  10  768
1477473257.310:   1816  78  10  768
1477473257.310:   1858  78  10  768
1477473257.311:   1876  78  10  768
1477473257.313:   1877  78  10  768
1477473257.314:   1857  78  10  768
1477473257.314:   1819  78  10  768
1477473257.315:   1789  78  10  768
1477473257.316:   1806  78  10  768
1477473257.316:   1875  78  10  768
1477473257.330:   1956  78  10  768
1477473257.330:   2006  78  10  768
1477473257.330:   2024  78  10  768
1477473257.330:   2045  78  10  768
1477473257.331:   2085  78  10  768
1477473257.331:   2122  78  10  768
1477473257.331:   2127  78  10  768
1477473257.331:   2109  78  10  768
1477473257.331:   2106  78  10  768
1477473257.331:   2141  78  10  768
1477473257.332:   2192  78  10  768
1477473257.333:   2234  78  10  768
1477473257.334:   2265  78  10  768
1477473257.335:   2301  78  10  768
1477473257.337:   2353  78  10  768
1477473257.339:   2416  78  10  768
1477473257.340:   2481  78  10  768
1477473257.341:   2547  78  10  768
1477473257.346:   2614  78  10  768
1477473257.346:   2673  78  10  768
1477473257.347:   2717  78  10  768
1477473257.347:   2757  78  10  768
1477473257.350:   2806  78  10  768
1477473257.351:   2856  78  10  768
1477473257.363:   2882  78  10  768
1477473257.364:   2876  78  10  768
1477473257.364:   2863  78  10  768
1477473257.366:   2878  78  10  768
1477473257.386:   2923  77  10  769
1477473257.386:   2962  77  10  769
1477473257.386:   2974  77  10  769
1477473257.386:   2975  77  10  769
1477473257.387:   2997  77  10  769
1477473257.387:   3033  77  10  769
1477473257.387:   3049  77  10  769
1477473257.387:   3028  77  10  769
1477473257.387:   3000  77  10  769
1477473257.388:   3001  77  10  769
1477473257.388:   3026  77  10  769
1477473257.388:   3042  77  10  769
1477473257.388:   3035  77  10  769
1477473257.388:   3035  77  10  769
1477473257.391:   3070  77  10  769
1477473257.392:   3120  77  10  769
1477473257.396:   3143  77  10  769
1477473257.397:   3128  77  10  769
1477473257.399:   3111  77  10  769
1477473257.400:   3123  77  10  769
1477473257.402:   3147  77  10  769
1477473257.403:   3140  77  10  769
1477473257.405:   3096  77  10  769
1477473257.408:   3051  77  10  769
1477473257.408:   3036  77  10  769
1477473257.409:   3041  77  10  769
1477473257.414:   3036  77  10  769
1477473257.414:   3014  77  10  769
1477473257.417:   2993  77  10  769
1477473257.418:   2986  77  10  769
1477473257.419:   2979  77  10  769
1477473257.420:   2956  77  10  769
1477473257.423:   2927  77  10  769
1477473257.454:   2915  77  10  769
1477473257.457:   2926  77  10  769
1477473257.458:   2937  77  10  769
1477473257.458:   2919  77  10  769
1477473257.466:   2873  77  10  769
1477473257.466:   2825  77  10  769
1477473257.466:   2793  77  10  769
1477473257.468:   2773  77  10  769
1477473257.469:   2745  77  10  769
1477473257.469:   2702  77  10  769
1477473257.470:   2656  77  10  769
1477473257.471:   2629  77  10  769
1477473257.471:   2633  77  10  769
1477473257.472:   2659  77  10  769
1477473257.472:   2686  77  10  769
1477473257.473:   2695  77  10  769
1477473257.474:   2692  77  10  769
1477473257.474:   2687  77  10  769
1477473257.475:   2686  77  10  769
1477473257.475:   2679  77  10  769
1477473257.476:   2658  77  10  769
1477473257.478:   2623  77  10  769
1477473257.478:   2587  77  10  769
1477473257.483:   2552  77  10  769
1477473257.485:   2509  77  10  769
1477473257.485:   2451  77  10  769
1477473257.485:   2381  77  10  769
1477473257.488:   2314  77  10  769
1477473257.488:   2256  77  10  769
1477473257.489:   2197  77  10  769
1477473257.496:   2122  77  10  769
1477473257.512:   2028  77  10  769
1477473257.513:   1933  77  10  769
1477473257.513:   1855  77  10  769
1477473257.514:   1789  77  10  769
1477473257.515:   1717  77  10  769
1477473257.515:   1618  77  10  769
1477473257.516:   1502  77  10  769
1477473257.517:   1401  77  10  769
1477473257.533:   1340  77  10  769
1477473257.534:   1310  77  10  769
1477473257.534:   1276  77  10  769
1477473257.534:   1214  77  10  769
1477473257.535:   1138  77  10  769
1477473257.535:   1074  77  10  769
1477473257.535:   1036  77  10  769
1477473257.536:   1005  77  10  769
1477473257.536:    958  77  10  769
1477473257.537:    892  77  10  769
1477473257.537:    827  77  10  769
1477473257.537:    777  77  10  769
1477473257.537:    735  77  10  769
1477473257.538:    689  77  10  769
1477473257.538:    638  77  10  769
1477473257.538:    594  77  10  769
1477473257.539:    566  77  10  769
1477473257.539:    550  77  10  769
1477473257.542:    530  77  10  769
1477473257.546:    500  77  10  769
1477473257.546:    468  77  10  769
1477473257.547:    450  77  10  769
1477473257.547:    458  77  10  769
1477473257.552:    484  77  10  769
1477473257.552:    502  77  10  769
1477473257.561:    494  77  10  769
1477473257.573:    467  77  10  769
1477473257.573:    458  77  10  769
1477473257.573:    494  77  10  769
1477473257.573:    567  77  10  769
1477473257.573:    638  77  10  769
1477473257.573:    680  77  10  769
1477473257.573:    704  77  10  769
1477473257.573:    745  77  10  769
1477473257.574:    816  77  10  769
1477473257.574:    894  77  10  769
1477473257.577:    940  77  10  769
1477473257.581:    937  77  10  769
1477473257.581:    904  77  10  769
1477473257.585:    869  77  10  769
1477473257.594:    841  77  10  769
1477473257.595:    809  77  10  769
1477473257.595:    756  77  10  769
1477473257.595:    691  77  10  769
1477473257.595:    638  77  10  769
1477473257.595:    613  77  10  769
1477473257.595:    611  77  10  769
1477473257.597:    614  77  10  769
1477473257.598:    618  77  10  769
1477473257.601:    631  77  10  769
1477473257.604:    666  77  10  769
1477473257.605:    715  77  10  769
1477473257.606:    761  77  10  769
1477473257.607:    794  77  10  769
1477473257.609:    821  77  10  769
1477473257.611:    851  77  10  769
1477473257.614:    883  77  10  769
1477473257.614:    906  77  10  769
1477473257.619:    913  77  10  769
1477473257.619:    907  77  10  769
1477473257.620:    894  77  10  769
1477473257.624:    875  77  10  769
1477473257.639:    847  77  10  769
1477473257.639:    813  77  10  769
1477473257.641:    781  77  10  769
1477473257.642:    755  77  10  769
1477473257.643:    729  77  10  769
1477473257.643:    700  77  10  769
1477473257.645:    672  77  10  769
1477473257.646:    658  77  10  769
1477473257.646:    658  77  10  769
1477473257.647:    659  77  10  769
1477473257.677:    651  77  10  769
1477473257.679:    643  77  10  769
1477473257.679:    654  77  10  769
1477473257.680:    687  77  10  769
1477473257.682:    719  77  10  769
1477473257.684:    728  77  10  769
1477473257.685:    711  77  10  769
1477473257.775:    694  77  10  769
1477473257.776:    691  77  10  769
1477473257.776:    694  77  10  769
1477473257.777:    680  77  10  769
1477473257.777:    638  77  10  769
1477473257.777:    579  77  10  769
1477473257.777:    525  77  10  769
1477473257.777:    484  77  10  769
1477473257.777:    448  77  10  769
1477473257.778:    409  77  10  769
1477473257.778:    369  77  10  769
1477473257.778:    333  77  10  769
1477473257.779:    307  77  10  769
1477473257.779:    291  77  10  769
1477473257.779:    286  77  10  769
1477473257.779:    297  77  10  769
1477473257.779:    326  77  10  769
1477473257.779:    368  77  10  769
1477473257.779:    408  77  10  769
1477473257.780:    436  77  10  769
1477473257.780:    452  77  10  769
1477473257.780:    470  77  10  769
1477473257.780:    504  77  10  769
1477473257.780:    560  77  10  769
1477473257.780:    626  77  10  769
1477473257.780:    686  77  10  769
1477473257.781:    728  77  10  769
1477473257.781:    750  77  10  769
1477473257.781:    757  77  10  769
1477473257.781:    759  77  10  769
1477473257.781:    768  77  10  769
1477473257.782:    786  77  10  769
1477473257.782:    805  77  10  769
1477473257.782:    813  77  10  769
1477473257.782:    811  77  10  769
1477473257.782:    812  77  10  769
1477473257.782:    830  77  10  769
1477473257.783:    862  77  10  769
1477473257.783:    894  77  10  769
1477473257.802:    918  77  10  769
1477473257.802:    939  77  10  769
1477473257.802:    966  77  10  769
1477473257.802:    999  77  10  769
1477473257.802:   1034  77  10  769
1477473257.803:   1071  77  10  769
1477473257.803:   1115  77  10  769
1477473257.803:   1172  77  10  769
1477473257.803:   1236  77  10  769
1477473257.803:   1295  77  10  769
1477473257.803:   1341  77  10  769
1477473257.803:   1371  77  10  769
1477473257.804:   1390  77  10  769
1477473257.804:   1412  77  10  769
1477473257.804:   1449  77  10  769
1477473257.804:   1504  77  10  769
1477473257.804:   1566  77  10  769
1477473257.805:   1618  77  10  769
1477473257.805:   1655  77  10  769
1477473257.805:   1692  77  10  769
1477473257.805:   1744  77  10  769
1477473257.805:   1806  77  10  769
1477473257.805:   1852  77  10  769
1477473257.805:   1861  77  10  769
1477473257.806:   1842  77  10  769
1477473257.806:   1823  77  10  769
1477473257.806:   1825  77  10  769
1477473257.806:   1842  77  10  769
1477473257.806:   1852  77  10  769
1477473257.809:   1830  77  10  769
1477473257.810:   1753  77  10  769
1477473257.810:   1600  77  10  769
1477473257.810:   1356  77  10  769
1477473257.810:   1025  77  10  769
1477473257.811:    621  77  10  769
1477473257.811:    152  77  10  769
1477473257.811:   -387  77  10  769
1477473257.811:   -999  77  10  769
1477473257.812:  -1654  77  10  769
1477473257.813:  -2307  77  10  769
1477473257.813:  -2926  77  10  769
1477473257.816:  -3510  77  10  769
1477473257.816:  -4069  77  10  769
1477473257.824:  -4602  77  10  769
1477473257.825:  -5100  77  10  769
1477473257.826:  -5573  77  10  769
1477473257.827:  -6058  77  10  769
1477473257.830:  -6585  77  10  769
1477473257.832:  -7149  77  10  769
1477473257.834:  -7716  77  10  769
1477473257.849:  -8268  77  10  769
1477473257.849:  -8821  77  10  769
1477473257.849:  -9402  77  10  769
1477473257.849: -10009  77  10  769
1477473257.850: -10608  77  10  769
1477473257.850: -11163  77  10  769
1477473257.850: -11669  77  10  769
1477473257.850: -12147  77  10  769
1477473257.850: -12620  77  10  769
1477473257.850: -13096  77  10  769
1477473257.854: -13569  77  10  769
1477473257.854: -14035  77  10  769
1477473257.855: -14489  77  10  769
1477473257.860: -14930  77  10  769
1477473257.866: -15357  77  10  769
1477473257.866: -15768  77  10  769
1477473257.873: -16164  77  10  769
1477473257.874: -16543  77  10  769
1477473257.874: -16903  77  10  769
1477473257.874: -17244  77  10  769
1477473257.876: -17574  77  10  769
1477473257.877: -17900  77  10  769
1477473257.878: -18216  77  10  769
1477473257.879: -18513  77  10  769
1477473257.880: -18790  77  10  769
1477473257.881: -19066  77  10  769
1477473257.892: -19356  77  10  769
1477473257.892: -19658  77  10  769
1477473257.892: -19949  77  10  769
1477473257.892: -20214  77  10  769
1477473257.893: -20465  77  10  769
1477473257.893: -20725  77  10  769
1477473257.894: -21000  77  10  769
1477473257.896: -21275  77  10  769
1477473257.898: -21531  77  10  769
1477473257.902: -21759  77  10  769
1477473257.902: -21967  77  10  769
1477473257.908: -22161  77  10  769
1477473257.909: -22346  77  10  769
1477473257.911: -22522  77  10  769
1477473257.912: -22686  77  10  769
1477473257.912: -22838  77  10  769
1477473257.947: -22979  77  10  769
1477473257.947: -23098  77  10  769
1477473257.963: -23182  77  10  769
1477473257.964: -23217  77  10  769
1477473257.964: -23206  77  10  769
1477473257.964: -23156  77  10  769
1477473257.964: -23053  77  10  769
1477473257.964: -22827  77  10  769
1477473257.964: -22409  77  10  769
1477473257.965: -21808  77  10  769
1477473257.965: -21136  77  10  769
1477473257.965: -20553  77  10  769
1477473257.965: -20163  77  10  769
1477473257.965: -19967  77  10  769
1477473257.966: -19902  77  10  769
1477473257.966: -19926  77  10  769
1477473257.966: -20071  77  10  769
1477473257.966: -20449  77  10  769
1477473257.966: -21181  77  10  769
1477473257.967: -22279  77  10  769
1477473257.967: -23592  77  10  769
1477473257.967: -24884  77  10  769
1477473257.967: -26028  77  10  769
1477473257.967: -27104  77  10  769
1477473257.967: -28261  77  10  769
1477473257.968: -29483  77  10  769
1477473257.968: -30539  77  10  769
1477473257.968: -31188  77  10  769
1477473257.969: -31420  77  10  769
1477473257.970: -31439  77  10  769
1477473257.972: -31406  77  10  769
1477473257.975: -31281  77  10  769
1477473257.987: -30931  77  10  769
1477473257.988: -30349  77  10  769
1477473257.988: -29697  77  10  769
1477473257.988: -29132  77  10  769
1477473257.988: -28658  77  10  769
1477473257.988: -28177  77  10  769
1477473257.989: -27660  77  10  769
1477473257.994: -27197  77  10  769
1477473257.994: -26890  77  10  769
1477473257.996: -26741  77  10  769
1477473257.997: -26647  77  10  769
1477473257.999: -26517  77  10  769
1477473258.001: -26354  77  10  769
1477473258.003: -26225  77  10  769
1477473258.007: -26166  77  10  769
1477473258.008: -26158  77  10  769
1477473258.010: -26151  77  10  769
1477473258.012: -26133  77  10  769
1477473258.030: -26145  77  10  769
1477473258.030: -26231  77  10  769
1477473258.031: -26383  77  10  769
1477473258.031: -26541  77  10  769
1477473258.031: -26645  77  10  769
1477473258.031: -26691  77  10  769
1477473258.031: -26734  77  10  769
1477473258.031: -26821  77  10  769
1477473258.032: -26954  77  10  769
1477473258.032: -27093  77  10  769
1477473258.036: -27202  77  10  769
1477473258.036: -27289  77  10  769
1477473258.038: -27379  77  10  769
1477473258.041: -27480  77  10  769
1477473258.052: -27572  77  10  769
1477473258.052: -27629  77  10  769
1477473258.052: -27653  77  10  769
1477473258.053: -27666  77  10  769
1477473258.053: -27687  77  10  769
1477473258.053: -27718  77  10  769
1477473258.053: -27753  77  10  769
1477473258.059: -27795  77  10  769
1477473258.059: -27850  77  10  769
1477473258.060: -27919  77  10  769
1477473258.062: -27988  77  10  769
1477473258.063: -28042  77  10  769
1477473258.067: -28075  77  10  769
1477473258.068: -28100  77  10  769
1477473258.070: -28131  77  10  769
1477473258.072: -28173  77  10  769
1477473258.073: -28218  77  10  769
1477473258.078: -28242  77  10  769
1477473258.089: -28228  77  10  769
1477473258.089: -28182  77  10  769
1477473258.090: -28127  77  10  769
1477473258.090: -28087  77  10  769
1477473258.090: -28062  77  10  769
1477473258.090: -28030  77  10  769
1477473258.090: -27975  77  10  769
1477473258.090: -27909  77  10  769
1477473258.091: -27861  77  10  769
1477473258.095: -27842  77  10  769
1477473258.095: -27828  77  10  769
1477473258.097: -27787  77  10  769
1477473258.099: -27715  77  10  769
1477473258.100: -27633  77  10  769
1477473258.110: -27561  77  10  769
1477473258.110: -27494  77  10  769
1477473258.110: -27409  77  10  769
1477473258.111: -27300  77  10  769
1477473258.111: -27180  77  10  769
1477473258.111: -27069  77  10  769
1477473258.114: -26979  77  10  769
1477473258.117: -26904  77  10  769
1477473258.119: -26840  77  10  769
1477473258.122: -26789  77  10  769
1477473258.124: -26754  77  10  769
1477473258.125: -26736  77  10  769
1477473258.127: -26723  77  10  769
1477473258.127: -26697  77  10  769
1477473258.130: -26654  77  10  769
1477473258.131: -26603  77  10  769
1477473258.136: -26561  77  10  769
1477473258.136: -26527  77  10  769
1477473258.138: -26484  77  10  769
1477473258.139: -26414  77  10  769
1477473258.154: -26322  77  10  769
1477473258.154: -26234  77  10  769
1477473258.156: -26172  77  10  769
1477473258.157: -26134  77  10  769
1477473258.157: -26101  77  10  769
1477473258.158: -26067  77  10  769
1477473258.158: -26043  77  10  769
1477473258.159: -26041  77  10  769
1477473258.159: -26055  77  10  769
1477473258.160: -26063  77  10  769
1477473258.167: -26050  77  10  769
1477473258.167: -26027  77  10  769
1477473258.174: -26013  77  10  769
1477473258.174: -26011  77  10  769
1477473258.174: -26005  77  10  769
1477473258.174: -25978  77  10  769
1477473258.174: -25935  77  10  769
1477473258.177: -25898  77  10  769
1477473258.178: -25889  77  10  769
1477473258.179: -25906  77  10  769
1477473258.181: -25928  77  10  769
1477473258.183: -25937  77  10  769
1477473258.185: -25933  77  10  769
1477473258.186: -25925  77  10  769
1477473258.191: -25924  77  10  769
1477473258.191: -25934  77  10  769
1477473258.195: -25954  77  10  769
1477473258.195: -25984  77  10  769
1477473258.196: -26020  77  10  769
1477473258.198: -26060  77  10  769
1477473258.200: -26107  77  10  769
1477473258.205: -26167  77  10  769
1477473258.210: -26244  77  10  769
1477473258.211: -26331  77  10  769
1477473258.212: -26412  77  10  769
1477473258.212: -26478  77  10  769
1477473258.213: -26533  77  10  769
1477473258.218: -26586  77  10  769
1477473258.218: -26639  77  10  769
1477473258.219: -26689  77  10  769
1477473258.238: -26732  77  10  769
1477473258.238: -26775  77  10  769
1477473258.238: -26827  77  10  769
1477473258.239: -26894  77  10  769
1477473258.239: -26982  77  10  769
1477473258.239: -27095  77  10  769
1477473258.240: -27228  77  10  769
1477473258.244: -27360  77  10  769
1477473258.245: -27470  77  10  769
1477473258.247: -27555  77  10  769
1477473258.248: -27630  77  10  769
1477473258.248: -27709  77  10  769
1477473258.261: -27783  77  10  769
1477473258.262: -27834  77  10  769
1477473258.263: -27867  77  10  769
1477473258.263: -27916  77  10  769
1477473258.264: -28013  77  10  769
1477473258.264: -28145  77  10  769
1477473258.264: -28269  77  10  769
1477473258.265: -28363  77  10  769
1477473258.266: -28451  77  10  769
1477473258.266: -28571  77  10  769
1477473258.266: -28734  77  10  769
1477473258.268: -28903  77  10  769
1477473258.279: -29030  77  10  769
1477473258.279: -29109  77  10  769
1477473258.279: -29172  77  10  769
1477473258.279: -29255  77  10  769
1477473258.279: -29352  77  10  769
1477473258.280: -29427  77  10  769
1477473258.280: -29455  77  10  769
1477473258.281: -29447  77  10  769
1477473258.283: -29437  77  10  769
1477473258.285: -29440  77  10  769
1477473258.286: -29445  77  10  769
1477473258.291: -29441  77  10  769
1477473258.294: -29436  77  10  769
1477473258.294: -29447  77  10  769
1477473258.301: -29477  77  10  769
1477473258.301: -29504  77  10  769
1477473258.301: -29506  77  10  769
1477473258.302: -29486  77  10  769
1477473258.302: -29458  77  10  769
1477473258.304: -29420  77  10  769
1477473258.310: -29357  77  10  769
1477473258.310: -29261  77  10  769
1477473258.313: -29152  77  10  769
1477473258.314: -29055  77  10  769
1477473258.329: -28971  77  10  769
1477473258.330: -28870  77  10  769
1477473258.330: -28731  77  10  769
1477473258.331: -28579  77  10  769
1477473258.331: -28454  77  10  769
1477473258.332: -28364  77  10  769
1477473258.332: -28269  77  10  769
1477473258.333: -28121  77  10  769
1477473258.333: -27925  77  10  769
1477473258.333: -27736  77  10  769
1477473258.334: -27603  77  10  769
1477473258.338: -27517  77  10  769
1477473258.349: -27430  77  10  769
1477473258.349: -27315  77  10  769
1477473258.350: -27191  77  10  769
1477473258.350: -27098  77  10  769
1477473258.353: -27044  77  10  769
1477473258.355: -26996  77  10  769
1477473258.355: -26928  77  10  769
1477473258.355: -26847  77  10  769
1477473258.356: -26779  77  10  769
1477473258.363: -26724  77  10  769
1477473258.364: -26654  77  10  769
1477473258.368: -26546  77  10  769
1477473258.370: -26411  77  10  769
1477473258.370: -26277  77  10  769
1477473258.372: -26154  77  10  769
1477473258.376: -26023  77  10  769
1477473258.391: -25866  77  10  769
1477473258.391: -25694  77  10  769
1477473258.392: -25536  77  10  769
1477473258.392: -25408  77  10  769
1477473258.393: -25302  77  10  769
1477473258.394: -25190  77  10  769
1477473258.394: -25051  77  10  769
1477473258.394: -24886  77  10  769
1477473258.395: -24706  77  10  769
1477473258.395: -24523  77  10  769
1477473258.397: -24335  77  10  769
1477473258.397: -24133  77  10  769
1477473258.409: -23911  77  10  769
1477473258.409: -23671  77  10  769
1477473258.410: -23423  77  10  769
1477473258.410: -23178  77  10  769
1477473258.411: -22934  77  10  769
1477473258.411: -22683  77  10  769
1477473258.412: -22415  77  10  769
1477473258.412: -22124  77  10  769
1477473258.413: -21818  77  10  769
1477473258.419: -21510  77  10  769
1477473258.421: -21213  77  10  769
1477473258.423: -20925  77  10  769
1477473258.424: -20626  77  10  769
1477473258.424: -20288  77  10  769
1477473258.425: -19889  77  10  769
1477473258.425: -19443  77  10  769
1477473258.427: -18984  77  10  769
1477473258.428: -18525  77  10  769
1477473258.431: -18030  77  10  769
1477473258.505: -17457  77  10  769
1477473258.506: -16810  77  10  769
1477473258.508: -16141  77  10  769
1477473258.508: -15490  77  10  769
1477473258.509: -14836  77  10  769
1477473258.509: -14138  77  10  769
1477473258.510: -13419  77  10  769
1477473258.511: -12755  77  10  769
1477473258.511: -12161  77  10  769
1477473258.511: -11506  77  10  769
1477473258.511: -10604  77  10  769
1477473258.512:  -9383  77  10  769
1477473258.512:  -7952  77  10  769
1477473258.513:  -6457  77  10  769
1477473258.513:  -4914  77  10  769
1477473258.513:  -3206  77  10  769
1477473258.513:  -1245  77  10  769
1477473258.513:    890  77  10  769
1477473258.514:   3006  77  10  769
1477473258.514:   4950  77  10  769
1477473258.514:   6694  77  10  769
1477473258.515:   8299  77  10  769
1477473258.515:   9820  77  10  769
1477473258.516:  11277  77  10  769
1477473258.517:  12667  77  10  769
1477473258.530:  13986  77  10  769
1477473258.530:  15233  77  10  769
1477473258.530:  16420  77  10  769
1477473258.530:  17569  77  10  769
1477473258.530:  18704  77  10  769
1477473258.531:  19834  77  10  769
1477473258.531:  20947  77  10  769
1477473258.531:  22024  77  10  769
1477473258.531:  23050  77  10  769
1477473258.531:  24003  77  10  769
1477473258.531:  24859  77  10  769
1477473258.532:  25617  77  10  769
1477473258.532:  26311  77  10  769
1477473258.532:  26991  77  10  769
1477473258.532:  27678  77  10  769
1477473258.533:  28349  77  10  769
1477473258.533:  28967  77  10  769
1477473258.533:  29517  77  10  769
1477473258.533:  30008  77  10  769
1477473258.534:  30450  77  10  769
1477473258.534:  30846  77  10  769
1477473258.534:  31206  77  10  769
1477473258.534:  31543  77  10  769
1477473258.534:  31862  77  10  769
1477473258.535:  32162  77  10  769
1477473258.535:  32440  77  10  769
1477473258.535:  32704  77  10  769
1477473258.536: -32576  77  10  769
1477473258.536: -32337  77  10  769
1477473258.538: -32130  77  10  769
1477473258.539: -31958  77  10  769
1477473258.540: -31812  77  10  769
1477473258.544: -31684  77  10  769
1477473258.544: -31579  77  10  769
1477473258.547: -31497  77  10  769
1477473258.548: -31422  77  10  769
1477473258.559: -31343  77  10  769
1477473258.559: -31270  77  10  769
1477473258.559: -31232  77  10  769
1477473258.570: -31236  77  10  769
1477473258.582: -31256  77  10  769
1477473258.582: -31264  77  10  769
1477473258.583: -31266  77  10  769
1477473258.583: -31290  77  10  769
1477473258.583: -31353  77  10  769
1477473258.584: -31440  77  10  769
1477473258.584: -31534  77  10  769
1477473258.585: -31638  77  10  769
1477473258.585: -31764  77  10  769
1477473258.585: -31911  77  10  769
1477473258.586: -32060  77  10  769
1477473258.586: -32198  77  10  769
1477473258.587: -32327  77  10  769
1477473258.587: -32450  77  10  769
1477473258.587: -32568  77  10  769
1477473258.588: -32678  77  10  769
1477473258.589:  32745  77  10  769
1477473258.595:  32622  77  10  769
1477473258.595:  32496  77  10  769
1477473258.597:  32384  77  10  769
1477473258.597:  32278  77  10  769
1477473258.599:  32156  77  10  769
1477473258.601:  32010  77  10  769
1477473258.602:  31872  77  10  769
1477473258.614:  31782  77  10  769
1477473258.615:  31744  77  10  769
1477473258.615:  31713  77  10  769
1477473258.616:  31648  77  10  769
1477473258.616:  31545  77  10  769
1477473258.619:  31436  77  10  769
1477473258.619:  31352  77  10  769
1477473258.621:  31293  77  10  769
1477473258.632:  31240  77  10  769
1477473258.632:  31172  77  10  769
1477473258.633:  31070  77  10  769
1477473258.633:  30939  77  10  769
1477473258.637:  30797  77  10  769
1477473258.637:  30673  77  10  769
1477473258.639:  30575  77  10  769
1477473258.639:  30482  77  10  769
1477473258.639:  30366  77  10  769
1477473258.639:  30226  77  10  769
1477473258.640:  30092  77  10  769
1477473258.644:  29991  77  10  769
1477473258.648:  29921  77  10  769
1477473258.650:  29850  77  10  769
1477473258.653:  29760  77  10  769
1477473258.655:  29653  77  10  769
1477473258.656:  29546  77  10  769
1477473258.657:  29447  77  10  769
1477473258.670:  29356  77  10  769
1477473258.671:  29265  77  10  769
1477473258.671:  29173  77  10  769
1477473258.671:  29077  77  10  769
1477473258.671:  28975  77  10  769
1477473258.671:  28874  77  10  769
1477473258.672:  28789  77  10  769
1477473258.672:  28733  77  10  769
1477473258.672:  28687  77  10  769
1477473258.674:  28619  77  10  769
1477473258.675:  28522  77  10  769
1477473258.680:  28429  77  10  769
1477473258.689:  28386  77  10  769
1477473258.689:  28403  77  10  769
1477473258.690:  28454  77  10  769
1477473258.690:  28536  77  10  769
1477473258.690:  28710  77  10  769
1477473258.690:  29051  77  10  769
1477473258.692:  29559  77  10  769
1477473258.693:  30129  77  10  769
1477473258.695:  30613  77  10  769
1477473258.699:  30915  77  10  769
1477473258.700:  31027  77  10  769
1477473258.701:  30994  77  10  769
1477473258.704:  30854  77  10  769
1477473258.732:  30587  77  10  769
1477473258.732:  30109  77  10  769
1477473258.734:  29320  77  10  769
1477473258.737:  28210  77  10  769
1477473258.739:  26916  77  10  769
1477473258.747:  25647  77  10  769
1477473258.747:  24513  77  10  769
1477473258.747:  23438  77  10  769
1477473258.747:  22285  77  10  769
1477473258.748:  21063  77  10  769
1477473258.748:  19972  77  10  769
1477473258.749:  19226  77  10  769
1477473258.749:  18851  77  10  769
1477473258.749:  18689  77  10  769
1477473258.749:  18603  77  10  769
1477473258.749:  18611  77  10  769
1477473258.749:  18816  77  10  769
1477473258.749:  19229  77  10  769
1477473258.749:  19738  77  10  769
1477473258.750:  20217  77  10  769
1477473258.751:  20646  82  10  748
1477473258.751:  21082  82  10  748
1477473258.754:  21531  82  10  748
1477473258.755:  21917  82  10  748
1477473258.755:  22159  82  10  748
1477473258.756:  22262  82  10  748
1477473258.769:  22317  82  10  748
1477473258.778:  22399  82  10  748
1477473258.779:  22500  82  10  748
1477473258.779:  22556  82  10  748
1477473258.779:  22533  82  10  748
1477473258.779:  22455  82  10  748
1477473258.780:  22373  82  10  748
1477473258.780:  22305  82  10  748
1477473258.780:  22221  82  10  748
1477473258.781:  22095  82  10  748
1477473258.781:  21942  82  10  748
1477473258.782:  21801  82  10  748
1477473258.784:  21693  82  10  748
1477473258.786:  21613  82  10  748
1477473258.786:  21542  82  10  748
1477473258.791:  21473  82  10  748
1477473258.792:  21407  82  10  748
1477473258.799:  21331  82  10  748
1477473258.799:  21231  82  10  748
1477473258.799:  21106  82  10  748
1477473258.799:  20971  82  10  748
1477473258.800:  20849  82  10  748
1477473258.802:  20747  82  10  748
1477473258.803:  20655  82  10  748
1477473258.804:  20564  82  10  748
1477473258.806:  20467  82  10  748
1477473258.807:  20360  82  10  748
1477473258.812:  20237  82  10  748
1477473258.812:  20094  82  10  748
