timestamp: ADC HeartRate4sAverage HeartRate30sAverage HRV8sAverage
1477472642.215:  -1995 129  17  653
1477472642.216:  -1889 129  17  653
1477472642.217:  -1763 125  16  682
1477472642.217:  -1641 125  16  682
1477472642.217:  -1537 125  16  682
1477472642.218:  -1430 125  16  682
1477472642.218:  -1289 125  16  682
1477472642.218:  -1115 125  16  682
1477472642.218:   -963 125  16  682
1477472642.219:   -871 125  16  682
1477472642.219:   -811 125  16  682
1477472642.219:   -722 125  16  682
1477472642.219:   -578 125  16  682
1477472642.220:   -408 125  16  682
1477472642.220:   -270 125  16  682
1477472642.220:   -184 125  16  682
1477472642.220:   -124 125  16  682
1477472642.220:    -48 125  16  682
1477472642.222:     57 125  16  682
1477472642.227:    163 125  16  682
1477472642.227:    243 125  16  682
1477472642.237:    282 125  16  682
1477472642.237:    292 125  16  682
1477472642.238:    298 125  16  682
1477472642.238:    311 125  16  682
1477472642.238:    325 125  16  682
1477472642.240:    318 125  16  682
1477472642.240:    292 125  16  682
1477472642.243:    270 125  16  682
1477472642.244:    265 125  16  682
1477472642.247:    269 125  16  682
1477472642.267:    258 125  16  682
1477472642.268:    225 125  16  682
1477472642.268:    187 125  16  682
1477472642.268:    175 125  16  682
1477472642.268:    186 125  16  682
1477472642.269:    187 125  16  682
1477472642.269:    154 125  16  682
1477472642.269:     92 125  16  682
1477472642.269:     30 125  16  682
1477472642.269:     -4 125  16  682
1477472642.269:    -21 125  16  682
1477472642.270:    -51 125  16  682
1477472642.273:   -113 125  16  682
1477472642.273:   -199 125  16  682
1477472642.276:   -283 125  16  682
1477472642.277:   -358 125  16  682
1477472642.301:   -440 125  16  682
1477472642.301:   -537 125  16  682
1477472642.301:   -636 125  16  682
1477472642.301:   -713 125  16  682
1477472642.301:   -768 125  16  682
1477472642.301:   -825 125  16  682
1477472642.302:   -902 125  16  682
1477472642.302:   -976 125  16  682
1477472642.302:  -1021 125  16  682
1477472642.302:  -1049 125  16  682
1477472642.302:  -1107 125  16  682
1477472642.302:  -1213 125  16  682
1477472642.302:  -1343 125  16  682
1477472642.305:  -1449 125  16  682
1477472642.307:  -1506 125  16  682
1477472642.308:  -1540 125  16  682
1477472642.310:  -1592 125  16  682
1477472642.313:  -1672 125  16  682
1477472642.321:  -1767 125  16  682
1477472642.321:  -1849 125  16  682
1477472642.321:  -1897 125  16  682
1477472642.321:  -1915 125  16  682
1477472642.324:  -1939 125  16  682
1477472642.324:  -2007 125  16  682
1477472642.328:  -2111 125  16  682
1477472642.328:  -2189 125  16  682
1477472642.339:  -2186 125  16  682
1477472642.339:  -2111 125  16  682
1477472642.340:  -2043 125  16  682
1477472642.340:  -2057 125  16  682
1477472642.340:  -2141 125  16  682
1477472642.343:  -2208 125  16  682
1477472642.343:  -2192 125  16  682
1477472642.344:  -2120 125  16  682
1477472642.346:  -2073 125  16  682
1477472642.349:  -2100 125  16  682
1477472642.357:  -2189 125  16  682
1477472642.357:  -2276 125  16  682
1477472642.357:  -2314 125  16  682
1477472642.359:  -2311 125  16  682
1477472642.359:  -2308 125  16  682
1477472642.393:  -2343 125  16  682
1477472642.393:  -2417 125  16  682
1477472642.393:  -2493 125  16  682
1477472642.393:  -2515 125  16  682
1477472642.394:  -2468 125  16  682
1477472642.395:  -2395 125  16  682
1477472642.395:  -2363 125  16  682
1477472642.396:  -2373 125  16  682
1477472642.399:  -2363 125  16  682
1477472642.399:  -2302 125  16  682
1477472642.401:  -2232 125  16  682
1477472642.411:  -2239 125  16  682
1477472642.411:  -2331 125  16  682
1477472642.411:  -2409 125  16  682
1477472642.411:  -2388 125  16  682
1477472642.412:  -2296 125  16  682
1477472642.412:  -2238 125  16  682
1477472642.412:  -2257 125  16  682
1477472642.412:  -2290 125  16  682
1477472642.413:  -2264 125  16  682
1477472642.415:  -2207 125  16  682
1477472642.416:  -2213 125  16  682
1477472642.416:  -2319 125  16  682
1477472642.416:  -2450 125  16  682
1477472642.416:  -2523 125  16  682
1477472642.417:  -2546 125  16  682
1477472642.417:  -2596 125  16  682
1477472642.417:  -2695 125  16  682
1477472642.417:  -2783 125  16  682
1477472642.418:  -2802 125  16  682
1477472642.420:  -2770 125  16  682
1477472642.430:  -2755 125  16  682
1477472642.430:  -2787 125  16  682
1477472642.431:  -2825 125  16  682
1477472642.431:  -2832 125  16  682
1477472642.431:  -2813 125  16  682
1477472642.433:  -2808 125  16  682
1477472642.434:  -2815 125  16  682
1477472642.434:  -2793 125  16  682
1477472642.436:  -2719 125  16  682
1477472642.437:  -2624 125  16  682
1477472642.448:  -2552 125  16  682
1477472642.448:  -2512 125  16  682
1477472642.448:  -2452 125  16  682
1477472642.449:  -2330 125  16  682
1477472642.450:  -2178 125  16  682
1477472642.450:  -2060 125  16  682
1477472642.452:  -2011 125  16  682
1477472642.453:  -1987 125  16  682
1477472642.457:  -1931 125  16  682
1477472642.458:  -1852 125  16  682
1477472642.458:  -1801 125  16  682
1477472642.465:  -1799 125  16  682
1477472642.466:  -1792 125  16  682
1477472642.466:  -1707 125  16  682
1477472642.467:  -1552 125  16  682
1477472642.471:  -1410 125  16  682
1477472642.475:  -1325 125  16  682
1477472642.475:  -1238 125  16  682
1477472642.491:  -1075 125  16  682
1477472642.492:   -834 125  16  682
1477472642.492:   -601 125  16  682
1477472642.492:   -448 125  16  682
1477472642.493:   -350 125  16  682
1477472642.493:   -215 125  16  682
1477472642.493:      2 125  16  682
1477472642.494:    240 125  16  682
1477472642.494:    398 125  16  682
1477472642.496:    455 125  16  682
1477472642.497:    488 125  16  682
1477472642.500:    586 125  16  682
1477472642.509:    752 125  16  682
1477472642.509:    895 125  16  682
1477472642.509:    929 125  16  682
1477472642.510:    872 125  16  682
1477472642.510:    830 125  16  682
1477472642.511:    880 125  16  682
1477472642.511:    988 125  16  682
1477472642.512:   1065 125  16  682
1477472642.514:   1057 125  16  682
1477472642.520:    996 125  16  682
1477472642.559:    940 125  16  682
1477472642.559:    910 125  16  682
1477472642.559:    880 125  16  682
1477472642.559:    830 125  16  682
1477472642.560:    779 125  16  682
1477472642.560:    751 125  16  682
1477472642.560:    744 125  16  682
1477472642.560:    749 125  16  682
1477472642.560:    768 125  16  682
1477472642.561:    818 125  16  682
1477472642.561:    896 125  16  682
1477472642.561:    982 125  16  682
1477472642.561:   1050 125  16  682
1477472642.561:   1095 125  16  682
1477472642.562:   1116 125  16  682
1477472642.562:   1107 125  16  682
1477472642.562:   1051 125  16  682
1477472642.562:    962 125  16  682
1477472642.562:    894 125  16  682
1477472642.563:    883 125  16  682
1477472642.563:    919 125  16  682
1477472642.565:    948 125  16  682
1477472642.565:    921 125  16  682
1477472642.566:    853 125  16  682
1477472642.566:    811 125  16  682
1477472642.569:    851 125  16  682
1477472642.570:    955 125  16  682
1477472642.574:   1040 125  16  682
1477472642.592:   1042 125  16  682
1477472642.593:    972 125  16  682
1477472642.593:    902 125  16  682
1477472642.594:    892 125  16  682
1477472642.594:    926 125  16  682
1477472642.594:    938 125  16  682
1477472642.595:    903 125  16  682
1477472642.595:    864 125  16  682
1477472642.595:    872 125  16  682
1477472642.596:    923 125  16  682
1477472642.596:    965 125  16  682
1477472642.596:    954 125  16  682
1477472642.600:    910 125  16  682
1477472642.602:    880 125  16  682
1477472642.614:    885 125  16  682
1477472642.616:    902 125  16  682
1477472642.617:    915 125  16  682
1477472642.618:    940 125  16  682
1477472642.619:    996 125  16  682
1477472642.620:   1070 125  16  682
1477472642.620:   1135 125  16  682
1477472642.622:   1171 125  16  682
1477472642.633:   1196 125  16  682
1477472642.633:   1225 125  16  682
1477472642.633:   1248 125  16  682
1477472642.634:   1231 125  16  682
1477472642.634:   1166 125  16  682
1477472642.634:   1086 125  16  682
1477472642.635:   1039 125  16  682
1477472642.637:   1050 125  16  682
1477472642.638:   1115 125  16  682
1477472642.639:   1202 125  16  682
1477472642.641:   1269 125  16  682
1477472642.641:   1292 125  16  682
1477472642.643:   1284 125  16  682
1477472642.644:   1283 125  16  682
1477472642.645:   1326 125  16  682
1477472642.648:   1401 125  16  682
1477472642.648:   1456 125  16  682
1477472642.649:   1437 125  16  682
1477472642.652:   1355 125  16  682
1477472642.656:   1274 125  16  682
1477472642.657:   1250 125  16  682
1477472642.658:   1285 125  16  682
1477472642.659:   1338 125  16  682
1477472642.661:   1385 125  16  682
1477472642.663:   1437 125  16  682
1477472642.666:   1531 125  16  682
1477472642.683:   1678 125  16  682
1477472642.683:   1848 125  16  682
1477472642.683:   1998 125  16  682
1477472642.683:   2107 125  16  682
1477472642.684:   2167 125  16  682
1477472642.684:   2179 125  16  682
1477472642.684:   2152 125  16  682
1477472642.686:   2113 125  16  682
1477472642.687:   2089 125  16  682
1477472642.687:   2082 125  16  682
1477472642.687:   2061 125  16  682
1477472642.688:   1989 125  16  682
1477472642.691:   1873 125  16  682
1477472642.694:   1769 125  16  682
1477472642.727:   1723 125  16  682
1477472642.727:   1720 125  16  682
1477472642.728:   1703 125  16  682
1477472642.728:   1634 125  16  682
1477472642.728:   1523 125  16  682
1477472642.729:   1420 125  16  682
1477472642.729:   1369 125  16  682
1477472642.733:   1367 125  16  682
1477472642.733:   1380 125  16  682
1477472642.733:   1377 125  16  682
1477472642.733:   1332 125  16  682
1477472642.734:   1242 125  16  682
1477472642.734:   1126 125  16  682
1477472642.734:   1022 125  16  682
1477472642.734:    959 125  16  682
1477472642.735:    933 125  16  682
1477472642.735:    905 125  16  682
1477472642.735:    833 125  16  682
1477472642.735:    708 125  16  682
1477472642.736:    585 125  16  682
1477472642.736:    520 125  16  682
1477472642.736:    519 125  16  682
1477472642.741:    524 125  16  682
1477472642.741:    476 125  16  682
1477472642.744:    377 125  16  682
1477472642.744:    290 125  16  682
1477472642.746:    265 125  16  682
1477472642.747:    269 125  16  682
1477472642.751:    219 125  16  682
1477472642.752:     92 125  16  682
1477472642.753:    -32 125  16  682
1477472642.758:    -33 125  16  682
1477472642.771:    125 125  16  682
1477472642.773:    361 125  16  682
1477472642.774:    560 125  16  682
1477472642.775:    690 125  16  682
1477472642.776:    822 125  16  682
1477472642.777:   1027 125  16  682
1477472642.777:   1276 125  16  682
1477472642.778:   1446 125  16  682
1477472642.779:   1427 125  16  682
1477472642.779:   1212 125  16  682
1477472642.780:    890 125  16  682
1477472642.784:    584 125  16  682
1477472642.793:    363 125  16  682
1477472642.794:    207 125  16  682
1477472642.795:     57 125  16  682
1477472642.796:   -130 125  16  682
1477472642.797:   -353 125  16  682
1477472642.798:   -585 125  16  682
1477472642.799:   -809 125  16  682
1477472642.800:  -1058 125  16  682
1477472642.800:  -1378 125  16  682
1477472642.801:  -1764 125  16  682
1477472642.803:  -2161 125  16  682
1477472642.804:  -2493 125  16  682
1477472642.819:  -2711 125  16  682
1477472642.819:  -2803 125  16  682
1477472642.820:  -2780 125  16  682
1477472642.820:  -2655 125  16  682
1477472642.820:  -2435 125  16  682
1477472642.820:  -2147 125  16  682
1477472642.821:  -1836 125  16  682
1477472642.821:  -1566 125  16  682
1477472642.821:  -1383 125  16  682
1477472642.823:  -1291 125  16  682
1477472642.825:  -1241 125  16  682
1477472642.826:  -1173 125  16  682
1477472642.831:  -1076 125  16  682
1477472642.831:   -987 125  16  682
1477472642.833:   -928 125  16  682
1477472642.838:   -877 125  16  682
1477472642.839:   -783 125  16  682
1477472642.840:   -636 125  16  682
1477472642.844:   -482 125  16  682
1477472642.845:   -385 125  16  682
1477472642.846:   -371 125  16  682
1477472642.849:   -413 125  16  682
1477472642.871:   -480 125  16  682
1477472642.871:   -555 125  16  682
1477472642.871:   -621 125  16  682
1477472642.872:   -666 125  16  682
1477472642.872:   -700 125  16  682
1477472642.872:   -756 125  16  682
1477472642.872:   -846 125  16  682
1477472642.873:   -938 125  16  682
1477472642.873:   -977 125  16  682
1477472642.873:   -951 125  16  682
1477472642.873:   -922 125  16  682
1477472642.873:   -965 125  16  682
1477472642.874:  -1083 125  16  682
1477472642.877:  -1194 125  16  682
1477472642.879:  -1226 125  16  682
1477472642.879:  -1188 125  16  682
1477472642.881:  -1161 125  16  682
1477472642.882:  -1207 125  16  682
1477472642.885:  -1304 125  16  682
1477472642.885:  -1374 125  16  682
1477472642.887:  -1360 125  16  682
1477472642.889:  -1280 125  16  682
1477472642.894:  -1192 125  16  682
1477472642.894:  -1130 125  16  682
1477472642.895:  -1083 125  16  682
1477472642.897:  -1016 125  16  682
1477472642.913:   -908 125  16  682
1477472642.915:   -769 125  16  682
1477472642.916:   -624 125  16  682
1477472642.917:   -487 125  16  682
1477472642.917:   -360 125  16  682
1477472642.918:   -244 125  16  682
1477472642.919:   -129 125  16  682
1477472642.920:      5 125  16  682
1477472642.920:    161 125  16  682
1477472642.921:    336 125  16  682
1477472642.921:    513 125  16  682
1477472642.924:    680 125  16  682
1477472642.934:    814 125  16  682
1477472642.935:    897 125  16  682
1477472642.935:    937 125  16  682
1477472642.935:    960 125  16  682
1477472642.936:    993 125  16  682
1477472642.936:   1035 125  16  682
1477472642.936:   1055 125  16  682
1477472642.937:   1035 125  16  682
1477472642.940:    994 125  16  682
1477472642.941:    967 125  16  682
1477472642.942:    957 125  16  682
1477472642.945:    938 125  16  682
1477472642.957:    896 125  16  682
1477472642.957:    845 125  16  682
1477472642.957:    798 125  16  682
1477472642.957:    749 125  16  682
1477472642.957:    669 125  16  682
1477472642.958:    557 125  16  682
1477472642.960:    457 125  16  682
1477472642.965:    417 125  16  682
1477472642.966:    435 125  16  682
1477472642.970:    463 118  15  678
1477472642.971:    456 118  15  678
1477472642.971:    411 118  15  678
1477472642.973:    359 118  15  678
1477472642.974:    333 118  15  678
1477472642.977:    335 118  15  678
1477472642.978:    347 118  15  678
1477472642.978:    349 118  15  678
1477472642.980:    342 118  15  678
1477472642.981:    329 118  15  678
1477472642.984:    311 118  15  678
1477472642.986:    292 118  15  678
1477472642.990:    289 118  15  678
1477472643.000:    312 118  15  678
1477472643.001:    348 118  15  678
1477472643.001:    371 118  15  678
1477472643.002:    356 118  15  678
1477472643.003:    313 118  15  678
1477472643.003:    271 118  15  678
1477472643.005:    247 118  15  678
1477472643.007:    224 118  15  678
1477472643.017:    178 118  15  678
1477472643.018:    109 118  15  678
1477472643.018:     39 118  15  678
1477472643.018:    -10 118  15  678
1477472643.018:    -35 118  15  678
1477472643.019:    -56 118  15  678
1477472643.019:    -86 118  15  678
1477472643.021:   -126 118  15  678
1477472643.022:   -169 118  15  678
1477472643.048:   -208 118  15  678
1477472643.061:   -232 118  15  678
1477472643.062:   -230 118  15  678
1477472643.062:   -216 118  15  678
1477472643.062:   -232 118  15  678
1477472643.062:   -318 118  15  678
1477472643.063:   -476 118  15  678
1477472643.063:   -656 118  15  678
1477472643.064:   -793 118  15  678
1477472643.065:   -854 118  15  678
1477472643.066:   -880 118  15  678
1477472643.066:   -937 118  15  678
1477472643.066:  -1047 118  15  678
1477472643.066:  -1157 118  15  678
1477472643.067:  -1183 118  15  678
1477472643.067:  -1095 118  15  678
1477472643.067:   -958 118  15  678
1477472643.067:   -878 118  15  678
1477472643.068:   -905 118  15  678
1477472643.068:   -992 118  15  678
1477472643.068:  -1057 118  15  678
1477472643.068:  -1065 118  15  678
1477472643.069:  -1054 118  15  678
1477472643.069:  -1077 118  15  678
1477472643.072:  -1149 118  15  678
1477472643.080:  -1220 118  15  678
1477472643.081:  -1243 118  15  678
1477472643.082:  -1228 118  15  678
1477472643.084:  -1235 118  15  678
1477472643.084:  -1308 118  15  678
1477472643.085:  -1438 118  15  678
1477472643.086:  -1573 118  15  678
1477472643.086:  -1680 118  15  678
1477472643.087:  -1788 118  15  678
1477472643.092:  -1956 118  15  678
1477472643.100:  -2196 118  15  678
1477472643.100:  -2447 118  15  678
1477472643.101:  -2631 118  15  678
1477472643.102:  -2732 118  15  678
1477472643.102:  -2799 118  15  678
1477472643.103:  -2883 118  15  678
1477472643.105:  -2980 118  15  678
1477472643.108:  -3028 118  15  678
1477472643.111:  -2985 118  15  678
1477472643.112:  -2880 118  15  678
1477472643.113:  -2782 118  15  678
1477472643.114:  -2728 118  15  678
1477472643.117:  -2706 118  15  678
1477472643.120:  -2669 118  15  678
1477472643.120:  -2595 118  15  678
1477472643.124:  -2513 118  15  678
1477472643.124:  -2495 118  15  678
1477472643.129:  -2577 118  15  678
1477472643.129:  -2727 118  15  678
1477472643.130:  -2859 118  15  678
1477472643.147:  -2908 118  15  678
1477472643.148:  -2877 118  15  678
1477472643.148:  -2835 118  15  678
1477472643.149:  -2837 118  15  678
1477472643.150:  -2877 118  15  678
1477472643.151:  -2915 118  15  678
1477472643.152:  -2924 118  15  678
1477472643.153:  -2911 118  15  678
1477472643.154:  -2898 118  15  678
1477472643.155:  -2901 118  15  678
1477472643.156:  -2944 118  15  678
1477472643.157:  -3031 118  15  678
1477472643.157:  -3142 118  15  678
1477472643.157:  -3227 118  15  678
1477472643.161:  -3258 118  15  678
1477472643.161:  -3257 118  15  678
1477472643.165:  -3270 118  15  678
1477472643.165:  -3297 118  15  678
1477472643.170:  -3297 118  15  678
1477472643.171:  -3254 118  15  678
1477472643.195:  -3217 118  15  678
1477472643.195:  -3245 118  15  678
1477472643.195:  -3330 118  15  678
1477472643.196:  -3404 118  15  678
1477472643.196:  -3435 118  15  678
1477472643.201:  -3458 118  15  678
1477472643.201:  -3525 118  15  678
1477472643.201:  -3630 118  15  678
1477472643.202:  -3701 118  15  678
1477472643.202:  -3685 118  15  678
1477472643.202:  -3609 118  15  678
1477472643.203:  -3538 118  15  678
1477472643.203:  -3511 118  15  678
1477472643.203:  -3526 118  15  678
1477472643.203:  -3570 118  15  678
1477472643.204:  -3633 118  15  678
1477472643.204:  -3712 118  15  678
1477472643.206:  -3801 118  15  678
1477472643.206:  -3891 118  15  678
1477472643.207:  -3981 118  15  678
1477472643.210:  -4068 118  15  678
1477472643.215:  -4132 118  15  678
1477472643.216:  -4151 118  15  678
1477472643.216:  -4127 118  15  678
1477472643.217:  -4089 118  15  678
1477472643.219:  -4056 118  15  678
1477472643.233:  -4026 118  15  678
1477472643.234:  -3982 118  15  678
1477472643.235:  -3910 118  15  678
1477472643.236:  -3808 118  15  678
1477472643.237:  -3698 118  15  678
1477472643.237:  -3611 118  15  678
1477472643.238:  -3567 118  15  678
1477472643.239:  -3566 118  15  678
1477472643.240:  -3585 118  15  678
1477472643.241:  -3594 118  15  678
1477472643.242:  -3581 118  15  678
1477472643.243:  -3563 118  15  678
1477472643.255:  -3554 118  15  678
1477472643.256:  -3550 118  15  678
1477472643.257:  -3535 118  15  678
1477472643.257:  -3495 118  15  678
1477472643.258:  -3425 118  15  678
1477472643.259:  -3328 118  15  678
1477472643.259:  -3218 118  15  678
1477472643.260:  -3124 118  15  678
1477472643.261:  -3077 118  15  678
1477472643.262:  -3082 118  15  678
1477472643.265:  -3096 118  15  678
1477472643.326:  -3066 118  15  678
1477472643.326:  -2984 118  15  678
1477472643.326:  -2897 118  15  678
1477472643.326:  -2851 118  15  678
1477472643.330:  -2840 118  15  678
1477472643.331:  -2814 118  15  678
1477472643.331:  -2741 118  15  678
1477472643.331:  -2637 118  15  678
1477472643.331:  -2559 118  15  678
1477472643.345:  -2533 118  15  678
1477472643.346:  -2534 118  15  678
1477472643.346:  -2519 118  15  678
1477472643.346:  -2479 118  15  678
1477472643.346:  -2451 118  15  678
1477472643.346:  -2470 118  15  678
1477472643.346:  -2527 118  15  678
1477472643.347:  -2572 118  15  678
1477472643.347:  -2571 118  15  678
1477472643.347:  -2554 118  15  678
1477472643.347:  -2585 118  15  678
1477472643.347:  -2679 118  15  678
1477472643.347:  -2771 118  15  678
1477472643.347:  -2782 118  15  678
1477472643.347:  -2705 118  15  678
1477472643.348:  -2621 118  15  678
1477472643.348:  -2614 118  15  678
1477472643.348:  -2677 118  15  678
1477472643.348:  -2727 118  15  678
1477472643.348:  -2706 118  15  678
1477472643.348:  -2641 118  15  678
1477472643.349:  -2601 118  15  678
1477472643.349:  -2620 118  15  678
1477472643.349:  -2676 118  15  678
1477472643.349:  -2741 118  15  678
1477472643.349:  -2813 118  15  678
1477472643.349:  -2909 118  15  678
1477472643.349:  -3019 118  15  678
1477472643.350:  -3111 118  15  678
1477472643.350:  -3189 118  15  678
1477472643.350:  -3326 118  15  678
1477472643.350:  -3602 118  15  678
1477472643.350:  -4025 118  15  678
1477472643.351:  -4511 118  15  678
1477472643.352:  -4952 118  15  678
1477472643.353:  -5319 118  15  678
1477472643.356:  -5681 118  15  678
1477472643.357:  -6103 118  15  678
1477472643.358:  -6560 118  15  678
1477472643.361:  -6937 118  15  678
1477472643.395:  -7143 118  15  678
1477472643.396:  -7186 118  15  678
1477472643.397:  -7151 118  15  678
1477472643.397:  -7121 118  15  678
1477472643.412:  -7118 118  15  678
1477472643.413:  -7116 118  15  678
1477472643.414:  -7106 118  15  678
1477472643.415:  -7112 118  15  678
1477472643.415:  -7134 118  15  678
1477472643.416:  -7156 118  15  678
1477472643.417:  -7176 118  15  678
1477472643.418:  -7199 118  15  678
1477472643.418:  -7221 118  15  678
1477472643.419:  -7195 118  15  678
1477472643.420:  -7068 118  15  678
1477472643.420:  -6853 118  15  678
1477472643.432:  -6642 118  15  678
1477472643.433:  -6518 118  15  678
1477472643.434:  -6466 118  15  678
1477472643.434:  -6392 118  15  678
1477472643.435:  -6256 118  15  678
1477472643.436:  -6129 118  15  678
1477472643.437:  -6117 118  15  678
1477472643.437:  -6225 118  15  678
1477472643.437:  -6343 118  15  678
1477472643.437:  -6363 118  15  678
1477472643.437:  -6281 118  15  678
1477472643.438:  -6172 118  15  678
1477472643.438:  -6078 118  15  678
1477472643.438:  -5966 118  15  678
1477472643.438:  -5805 118  15  678
1477472643.439:  -5614 118  15  678
1477472643.439:  -5429 118  15  678
1477472643.439:  -5244 118  15  678
1477472643.439:  -5031 118  15  678
1477472643.439:  -4790 118  15  678
1477472643.440:  -4577 118  15  678
1477472643.440:  -4453 118  15  678
1477472643.440:  -4418 118  15  678
1477472643.440:  -4419 118  15  678
1477472643.478:  -4413 118  15  678
1477472643.479:  -4401 118  15  678
1477472643.479:  -4381 118  15  678
1477472643.480:  -4332 118  15  678
1477472643.484:  -4232 118  15  678
1477472643.485:  -4106 118  15  678
1477472643.485:  -3998 118  15  678
1477472643.486:  -3929 118  15  678
1477472643.487:  -3878 118  15  678
1477472643.487:  -3812 118  15  678
1477472643.487:  -3718 118  15  678
1477472643.488:  -3628 118  15  678
1477472643.488:  -3577 118  15  678
1477472643.488:  -3570 118  15  678
1477472643.488:  -3595 118  15  678
1477472643.489:  -3638 118  15  678
1477472643.489:  -3675 118  15  678
1477472643.489:  -3688 118  15  678
1477472643.490:  -3672 118  15  678
1477472643.490:  -3644 118  15  678
1477472643.490:  -3641 118  15  678
1477472643.490:  -3688 118  15  678
1477472643.491:  -3755 118  15  678
1477472643.491:  -3781 118  15  678
1477472643.491:  -3732 118  15  678
1477472643.494:  -3639 118  15  678
1477472643.495:  -3561 118  15  678
1477472643.495:  -3516 118  15  678
1477472643.496:  -3473 118  15  678
1477472643.499:  -3399 118  15  678
1477472643.500:  -3295 118  15  678
1477472643.501:  -3195 118  15  678
1477472643.519:  -3116 118  15  678
1477472643.520:  -3024 118  15  678
1477472643.521:  -2894 118  15  678
1477472643.521:  -2752 118  15  678
1477472643.522:  -2647 118  15  678
1477472643.522:  -2597 118  15  678
1477472643.523:  -2572 118  15  678
1477472643.524:  -2543 118  15  678
1477472643.525:  -2502 118  15  678
1477472643.526:  -2458 118  15  678
1477472643.527:  -2387 118  15  678
1477472643.528:  -2238 118  15  678
1477472643.538:  -1990 118  15  678
1477472643.539:  -1694 118  15  678
1477472643.539:  -1425 118  15  678
1477472643.539:  -1209 118  15  678
1477472643.539:  -1001 118  15  678
1477472643.540:   -758 118  15  678
1477472643.540:   -517 118  15  678
1477472643.542:   -381 118  15  678
1477472643.543:   -422 118  15  678
1477472643.544:   -593 118  15  678
1477472643.547:   -763 118  15  678
1477472643.549:   -835 118  15  678
1477472643.553:   -836 118  15  678
1477472643.553:   -861 118  15  678
1477472643.561:   -984 118  15  678
1477472643.561:  -1196 118  15  678
1477472643.563:  -1447 118  15  678
1477472643.563:  -1723 118  15  678
1477472643.564:  -2065 118  15  678
1477472643.569:  -2493 118  15  678
1477472643.569:  -2948 118  15  678
1477472643.572:  -3334 118  15  678
1477472643.581:  -3593 118  15  678
1477472643.581:  -3736 118  15  678
1477472643.581:  -3798 118  15  678
1477472643.581:  -3774 118  15  678
1477472643.581:  -3633 118  15  678
1477472643.582:  -3383 118  15  678
1477472643.582:  -3108 118  15  678
1477472643.585:  -2901 118  15  678
1477472643.590:  -2798 118  15  678
1477472643.591:  -2775 118  15  678
1477472643.600:  -2809 118  15  678
1477472643.600:  -2898 118  15  678
1477472643.600:  -3026 118  15  678
1477472643.601:  -3129 118  15  678
1477472643.601:  -3125 118  15  678
1477472643.603:  -2982 118  15  678
1477472643.604:  -2757 118  15  678
1477472643.605:  -2517 118  15  678
1477472643.608:  -2276 118  15  678
1477472643.609:  -2008 118  15  678
1477472643.611:  -1722 118  15  678
1477472643.613:  -1484 118  15  678
1477472643.618:  -1368 118  15  678
1477472643.619:  -1390 118  15  678
1477472643.635:  -1500 118  15  678
1477472643.635:  -1635 118  15  678
1477472643.636:  -1755 118  15  678
1477472643.637:  -1832 118  15  678
1477472643.637:  -1841 118  15  678
1477472643.637:  -1786 118  15  678
1477472643.638:  -1713 118  15  678
1477472643.638:  -1669 118  15  678
1477472643.638:  -1658 118  15  678
1477472643.639:  -1650 118  15  678
1477472643.640:  -1635 118  15  678
1477472643.641:  -1641 118  15  678
1477472643.644:  -1708 118  15  678
1477472643.645:  -1829 118  15  678
1477472643.653:  -1952 118  15  678
1477472643.653:  -2045 118  15  678
1477472643.654:  -2124 118  15  678
1477472643.654:  -2219 118  15  678
1477472643.654:  -2318 118  15  678
1477472643.658:  -2380 118  15  678
1477472643.659:  -2397 118  15  678
1477472643.660:  -2418 118  15  678
1477472643.662:  -2497 118  15  678
1477472643.663:  -2644 118  15  678
1477472643.672:  -2800 118  15  678
1477472643.673:  -2912 118  15  678
1477472643.674:  -2987 118  15  678
1477472643.675:  -3075 118  15  678
1477472643.675:  -3204 118  15  678
1477472643.676:  -3352 118  15  678
1477472643.677:  -3469 118  15  678
1477472643.678:  -3533 118  15  678
1477472643.690:  -3567 118  15  678
1477472643.691:  -3620 118  15  678
1477472643.692:  -3718 118  15  678
1477472643.692:  -3840 118  15  678
1477472643.693:  -3952 118  15  678
1477472643.694:  -4046 118  15  678
1477472643.694:  -4143 118  15  678
1477472643.695:  -4274 118  15  678
1477472643.699:  -4432 118  15  678
1477472643.699:  -4567 118  15  678
1477472643.707:  -4627 118  15  678
1477472643.707:  -4620 118  15  678
1477472643.708:  -4605 118  15  678
1477472643.710:  -4617 118  15  678
1477472643.710:  -4625 118  15  678
1477472643.713:  -4565 118  15  678
1477472643.713:  -4408 118  15  678
1477472643.715:  -4212 118  15  678
1477472643.725:  -4065 118  15  678
1477472643.725:  -3990 118  15  678
1477472643.726:  -3918 118  15  678
1477472643.726:  -3769 118  15  678
1477472643.729:  -3533 118  15  678
1477472643.731:  -3276  97  13  707
1477472643.732:  -3055  97  13  707
1477472643.732:  -2852  97  13  707
1477472643.743:  -2594  97  13  707
1477472643.745:  -2251  97  13  707
1477472643.745:  -1872  97  13  707
1477472643.746:  -1534  97  13  707
1477472643.746:  -1252  97  13  707
1477472643.746:   -985  97  13  707
1477472643.747:   -700  97  13  707
1477472643.750:   -423  97  13  707
1477472643.761:   -194  97  13  707
1477472643.762:    -16  97  13  707
1477472643.762:    156  97  13  707
1477472643.766:    355  97  13  707
1477472643.766:    555  97  13  707
1477472643.767:    708  97  13  707
1477472643.767:    806  97  13  707
1477472643.767:    887  97  13  707
1477472643.767:    981  97  13  707
1477472643.767:   1089  97  13  707
1477472643.768:   1194  97  13  707
1477472643.769:   1273  97  13  707
1477472643.782:   1297  97  13  707
1477472643.782:   1246  97  13  707
1477472643.782:   1125  97  13  707
1477472643.782:    984  97  13  707
1477472643.783:    877  97  13  707
1477472643.783:    798  97  13  707
1477472643.783:    679  97  13  707
1477472643.787:    477  97  13  707
1477472643.787:    230  97  13  707
1477472643.788:     24  97  13  707
1477472643.789:   -118  97  13  707
1477472643.792:   -256  97  13  707
1477472643.794:   -468  97  13  707
1477472643.796:   -771  97  13  707
1477472643.800:  -1104  97  13  707
1477472643.800:  -1406  97  13  707
1477472643.804:  -1673  97  13  707
1477472643.804:  -1935  97  13  707
1477472643.819:  -2201  97  13  707
1477472643.820:  -2452  97  13  707
1477472643.820:  -2666  97  13  707
1477472643.821:  -2833  97  13  707
1477472643.821:  -2967  97  13  707
1477472643.822:  -3085  97  13  707
1477472643.825:  -3197  97  13  707
1477472643.826:  -3302  97  13  707
1477472643.826:  -3401  97  13  707
1477472643.827:  -3497  97  13  707
1477472643.828:  -3588  97  13  707
1477472643.829:  -3670  97  13  707
1477472643.831:  -3744  97  13  707
1477472643.832:  -3805  97  13  707
1477472643.843:  -3842  97  13  707
1477472643.844:  -3859  97  13  707
1477472643.846:  -3874  97  13  707
1477472643.850:  -3899  97  13  707
1477472643.868:  -3936  97  13  707
1477472643.870:  -3970  97  13  707
1477472643.870:  -3988  97  13  707
1477472643.870:  -3997  97  13  707
1477472643.871:  -4011  97  13  707
1477472643.871:  -4029  97  13  707
1477472643.871:  -4021  97  13  707
1477472643.871:  -3970  97  13  707
1477472643.873:  -3890  97  13  707
1477472643.874:  -3810  97  13  707
1477472643.874:  -3742  97  13  707
1477472643.874:  -3672  97  13  707
1477472643.875:  -3578  97  13  707
1477472643.875:  -3464  97  13  707
1477472643.876:  -3362  97  13  707
1477472643.876:  -3301  97  13  707
1477472643.876:  -3278  97  13  707
1477472643.877:  -3280  97  13  707
1477472643.877:  -3292  97  13  707
1477472643.882:  -3306  97  13  707
1477472643.891:  -3320  97  13  707
1477472643.892:  -3348  97  13  707
1477472643.892:  -3408  97  13  707
1477472643.892:  -3502  97  13  707
1477472643.892:  -3603  97  13  707
1477472643.892:  -3684  97  13  707
1477472643.895:  -3736  97  13  707
1477472643.896:  -3781  97  13  707
1477472643.897:  -3840  97  13  707
1477472643.899:  -3913  97  13  707
1477472643.901:  -3995  97  13  707
1477472643.904:  -4094  97  13  707
1477472643.904:  -4214  97  13  707
1477472643.909:  -4331  97  13  707
1477472643.922:  -4408  97  13  707
1477472643.924:  -4447  97  13  707
1477472643.925:  -4494  97  13  707
1477472643.925:  -4589  97  13  707
1477472643.926:  -4709  97  13  707
1477472643.927:  -4796  97  13  707
1477472643.928:  -4825  97  13  707
1477472643.929:  -4839  97  13  707
1477472643.944:  -4881  97  13  707
1477472643.944:  -4936  97  13  707
1477472643.944:  -4961  97  13  707
1477472643.945:  -4955  97  13  707
1477472643.945:  -4966  97  13  707
1477472643.945:  -5025  97  13  707
1477472643.945:  -5108  97  13  707
1477472643.946:  -5153  97  13  707
1477472643.946:  -5141  97  13  707
1477472643.946:  -5117  97  13  707
1477472643.947:  -5123  97  13  707
1477472643.947:  -5146  97  13  707
1477472643.950:  -5138  97  13  707
1477472643.951:  -5072  97  13  707
1477472643.952:  -4985  97  13  707
1477472643.953:  -4930  97  13  707
1477472643.954:  -4922  97  13  707
1477472643.960:  -4932  97  13  707
1477472643.968:  -4919  97  13  707
1477472643.969:  -4881  97  13  707
1477472643.969:  -4840  97  13  707
1477472643.970:  -4800  97  13  707
1477472643.970:  -4740  97  13  707
1477472643.970:  -4638  97  13  707
1477472643.971:  -4500  97  13  707
1477472643.973:  -4348  97  13  707
1477472643.977:  -4200  97  13  707
1477472643.977:  -4056  97  13  707
1477472643.989:  -3912  97  13  707
1477472643.989:  -3786  97  13  707
1477472643.990:  -3714  97  13  707
1477472643.990:  -3697  97  13  707
1477472643.990:  -3707  97  13  707
1477472643.992:  -3709  97  13  707
1477472643.992:  -3691  97  13  707
1477472643.993:  -3665  97  13  707
1477472643.994:  -3650  97  13  707
1477472643.996:  -3649  97  13  707
1477472643.998:  -3649  97  13  707
1477472644.001:  -3625  97  13  707
1477472644.010:  -3560  97  13  707
1477472644.011:  -3460  97  13  707
1477472644.011:  -3350  97  13  707
1477472644.012:  -3259  97  13  707
1477472644.012:  -3196  97  13  707
1477472644.013:  -3141  97  13  707
1477472644.016:  -3084  97  13  707
1477472644.019:  -3036  97  13  707
1477472644.030:  -3020  97  13  707
1477472644.087:  -3022  97  13  707
1477472644.087:  -3017  97  13  707
1477472644.087:  -2983  97  13  707
1477472644.088:  -2935  97  13  707
1477472644.088:  -2899  97  13  707
1477472644.090:  -2874  97  13  707
1477472644.090:  -2827  97  13  707
1477472644.090:  -2750  97  13  707
1477472644.090:  -2677  97  13  707
1477472644.119:  -2652  97  13  707
1477472644.119:  -2679  97  13  707
1477472644.119:  -2735  97  13  707
1477472644.119:  -2796  97  13  707
1477472644.119:  -2857  97  13  707
1477472644.120:  -2917  97  13  707
1477472644.120:  -2967  97  13  707
1477472644.120:  -2986  97  13  707
1477472644.120:  -2971  97  13  707
1477472644.120:  -2942  97  13  707
1477472644.121:  -2928  97  13  707
1477472644.121:  -2936  97  13  707
1477472644.121:  -2950  97  13  707
1477472644.121:  -2956  97  13  707
1477472644.122:  -2953  97  13  707
1477472644.123:  -2956  97  13  707
1477472644.123:  -2982  97  13  707
1477472644.123:  -3036  97  13  707
1477472644.123:  -3100  97  13  707
1477472644.123:  -3157  97  13  707
1477472644.124:  -3194  97  13  707
1477472644.124:  -3205  97  13  707
1477472644.124:  -3201  97  13  707
1477472644.124:  -3208  97  13  707
1477472644.125:  -3255  97  13  707
1477472644.125:  -3367  97  13  707
1477472644.125:  -3556  97  13  707
1477472644.125:  -3812  97  13  707
1477472644.125:  -4121  97  13  707
1477472644.125:  -4478  97  13  707
1477472644.126:  -4878  97  13  707
1477472644.126:  -5298  97  13  707
1477472644.148:  -5693  97  13  707
1477472644.149:  -6020  97  13  707
1477472644.149:  -6249  97  13  707
1477472644.149:  -6372  97  13  707
1477472644.149:  -6403  97  13  707
1477472644.149:  -6381  97  13  707
1477472644.150:  -6343  97  13  707
1477472644.150:  -6320  97  13  707
1477472644.150:  -6327  97  13  707
1477472644.150:  -6371  97  13  707
1477472644.151:  -6458  97  13  707
1477472644.151:  -6602  97  13  707
1477472644.151:  -6793  97  13  707
1477472644.151:  -6985  97  13  707
1477472644.152:  -7122  97  13  707
1477472644.152:  -7189  97  13  707
1477472644.152:  -7213  97  13  707
1477472644.153:  -7225  97  13  707
1477472644.153:  -7215  97  13  707
1477472644.153:  -7145  97  13  707
1477472644.154:  -7008  97  13  707
1477472644.154:  -6862  97  13  707
1477472644.154:  -6778  97  13  707
1477472644.154:  -6770  97  13  707
1477472644.154:  -6790  97  13  707
1477472644.156:  -6787  97  13  707
1477472644.158:  -6746  97  13  707
1477472644.158:  -6690  97  13  707
1477472644.159:  -6637  97  13  707
1477472644.159:  -6585  97  13  707
1477472644.171:  -6519  97  13  707
1477472644.173:  -6442  97  13  707
1477472644.174:  -6366  97  13  707
1477472644.175:  -6290  97  13  707
1477472644.176:  -6208  97  13  707
1477472644.176:  -6131  97  13  707
1477472644.177:  -6081  97  13  707
1477472644.178:  -6053  97  13  707
1477472644.190:  -6024  97  13  707
1477472644.191:  -5975  97  13  707
1477472644.192:  -5909  97  13  707
1477472644.193:  -5850  97  13  707
1477472644.193:  -5798  97  13  707
1477472644.195:  -5724  97  13  707
1477472644.196:  -5605  97  13  707
1477472644.198:  -5459  97  13  707
1477472644.209:  -5327  97  13  707
1477472644.210:  -5234  97  13  707
1477472644.211:  -5177  97  13  707
1477472644.213:  -5145  97  13  707
1477472644.213:  -5129  97  13  707
1477472644.214:  -5117  97  13  707
1477472644.215:  -5103  97  13  707
1477472644.216:  -5075  97  13  707
1477472644.227:  -5033  97  13  707
1477472644.227:  -4977  97  13  707
1477472644.228:  -4894  97  13  707
1477472644.228:  -4767  97  13  707
1477472644.228:  -4604  97  13  707
1477472644.228:  -4440  97  13  707
1477472644.228:  -4310  97  13  707
1477472644.228:  -4213  97  13  707
1477472644.228:  -4116  97  13  707
1477472644.229:  -3993  97  13  707
1477472644.232:  -3846  97  13  707
1477472644.232:  -3704  97  13  707
1477472644.233:  -3593  97  13  707
1477472644.239:  -3498  97  13  707
1477472644.248:  -3385  97  13  707
1477472644.249:  -3237  97  13  707
1477472644.249:  -3081  97  13  707
1477472644.249:  -2962  97  13  707
1477472644.249:  -2904  97  13  707
1477472644.249:  -2885  97  13  707
1477472644.249:  -2858  97  13  707
1477472644.251:  -2803  97  13  707
1477472644.251:  -2751  97  13  707
1477472644.255:  -2753  97  13  707
1477472644.257:  -2822  97  13  707
1477472644.259:  -2932  97  13  707
1477472644.270:  -3035  97  13  707
1477472644.270:  -3108  97  13  707
1477472644.270:  -3162  97  13  707
1477472644.270:  -3215  97  13  707
1477472644.270:  -3269  97  13  707
1477472644.271:  -3312  97  13  707
1477472644.271:  -3340  97  13  707
1477472644.271:  -3354  97  13  707
1477472644.278:  -3366  97  13  707
1477472644.279:  -3386  97  13  707
1477472644.282:  -3412  97  13  707
1477472644.285:  -3438  81  10  644
1477472644.302:  -3468  81  10  644
1477472644.303:  -3517  81  10  644
1477472644.303:  -3595  81  10  644
1477472644.304:  -3696  81  10  644
1477472644.305:  -3797  81  10  644
1477472644.306:  -3878  81  10  644
1477472644.307:  -3937  81  10  644
1477472644.308:  -4001  81  10  644
1477472644.320:  -4093  81  10  644
1477472644.328:  -4222  81  10  644
1477472644.331:  -4366  81  10  644
1477472644.332:  -4477  81  10  644
1477472644.333:  -4493  81  10  644
1477472644.335:  -4378  81  10  644
1477472644.336:  -4155  81  10  644
1477472644.337:  -3880  81  10  644
1477472644.337:  -3597  81  10  644
1477472644.337:  -3326  81  10  644
1477472644.338:  -3049  81  10  644
1477472644.338:  -2754  81  10  644
1477472644.338:  -2463  81  10  644
1477472644.339:  -2249  81  10  644
1477472644.339:  -2188  81  10  644
1477472644.340:  -2300  81  10  644
1477472644.340:  -2501  81  10  644
1477472644.340:  -2655  81  10  644
1477472644.342:  -2683  81  10  644
1477472644.343:  -2656  81  10  644
1477472644.346:  -2728  81  10  644
1477472644.347:  -2961  81  10  644
1477472644.361:  -3254  81  10  644
1477472644.362:  -3476  81  10  644
1477472644.363:  -3640  81  10  644
1477472644.363:  -3897  81  10  644
1477472644.364:  -4345  81  10  644
1477472644.364:  -4893  81  10  644
1477472644.364:  -5340  81  10  644
1477472644.365:  -5589  81  10  644
1477472644.365:  -5718  81  10  644
1477472644.365:  -5824  81  10  644
1477472644.366:  -5886  81  10  644
1477472644.366:  -5814  81  10  644
1477472644.370:  -5587  81  10  644
1477472644.370:  -5293  81  10  644
1477472644.380:  -5043  81  10  644
1477472644.381:  -4891  81  10  644
1477472644.381:  -4835  81  10  644
1477472644.381:  -4879  81  10  644
1477472644.381:  -5029  81  10  644
1477472644.381:  -5249  81  10  644
1477472644.391:  -5466  81  10  644
1477472644.391:  -5633  81  10  644
1477472644.401:  -5744  81  10  644
1477472644.401:  -5792  81  10  644
1477472644.401:  -5763  81  10  644
1477472644.402:  -5651  81  10  644
1477472644.402:  -5494  81  10  644
1477472644.402:  -5334  81  10  644
1477472644.402:  -5202  81  10  644
1477472644.402:  -5108  81  10  644
1477472644.405:  -5052  81  10  644
1477472644.407:  -5023  81  10  644
1477472644.407:  -4990  81  10  644
1477472644.409:  -4918  81  10  644
1477472644.409:  -4824  81  10  644
1477472644.410:  -4762  81  10  644
1477472644.411:  -4751  81  10  644
1477472644.412:  -4727  81  10  644
1477472644.416:  -4626  81  10  644
1477472644.418:  -4474  81  10  644
1477472644.425:  -4379  81  10  644
1477472644.426:  -4398  81  10  644
1477472644.440:  -4464  81  10  644
1477472644.440:  -4450  81  10  644
1477472644.440:  -4316  81  10  644
1477472644.440:  -4148  81  10  644
1477472644.441:  -4048  81  10  644
1477472644.441:  -4029  81  10  644
1477472644.441:  -4023  81  10  644
1477472644.441:  -3980  81  10  644
1477472644.441:  -3915  81  10  644
1477472644.443:  -3868  81  10  644
1477472644.445:  -3861  81  10  644
1477472644.446:  -3879  81  10  644
1477472644.450:  -3892  81  10  644
1477472644.450:  -3879  81  10  644
1477472644.460:  -3839  81  10  644
1477472644.460:  -3782  81  10  644
1477472644.460:  -3725  81  10  644
1477472644.460:  -3681  81  10  644
1477472644.461:  -3643  81  10  644
1477472644.462:  -3573  81  10  644
1477472644.465:  -3476  81  10  644
1477472644.466:  -3379  81  10  644
1477472644.468:  -3318  81  10  644
1477472644.468:  -3298  81  10  644
1477472644.470:  -3293  81  10  644
1477472644.472:  -3259  81  10  644
1477472644.480:  -3167  81  10  644
1477472644.481:  -3023  81  10  644
1477472644.481:  -2858  81  10  644
1477472644.482:  -2700  81  10  644
1477472644.485:  -2562  81  10  644
1477472644.486:  -2431  81  10  644
1477472644.489:  -2274  81  10  644
1477472644.493:  -2078  81  10  644
1477472644.498:  -1870  81  10  644
1477472644.498:  -1694  81  10  644
1477472644.498:  -1564  81  10  644
1477472644.499:  -1455  81  10  644
1477472644.502:  -1337  81  10  644
1477472644.504:  -1209  81  10  644
1477472644.508:  -1103  81  10  644
1477472644.508:  -1047  81  10  644
1477472644.518:  -1027  81  10  644
1477472644.519:  -1011  81  10  644
1477472644.519:   -987  81  10  644
1477472644.519:   -975  81  10  644
1477472644.519:   -985  81  10  644
1477472644.519:  -1001  81  10  644
1477472644.519:   -985  81  10  644
1477472644.519:   -932  81  10  644
1477472644.523:   -871  81  10  644
1477472644.528:   -843  81  10  644
1477472644.528:   -840  81  10  644
1477472644.530:   -823  81  10  644
1477472644.533:   -775  81  10  644
1477472644.534:   -735  81  10  644
1477472644.541:   -756  81  10  644
1477472644.542:   -847  81  10  644
1477472644.542:   -956  81  10  644
1477472644.542:  -1015  81  10  644
1477472644.542:  -1008  81  10  644
1477472644.544:   -982  81  10  644
1477472644.545:   -982  81  10  644
1477472644.546:   -997  81  10  644
1477472644.551:   -960  81  10  644
1477472644.551:   -829  81  10  644
1477472644.553:   -633  81  10  644
1477472644.554:   -454  81  10  644
1477472644.563:   -361  81  10  644
1477472644.563:   -354  81  10  644
1477472644.564:   -378  81  10  644
1477472644.568:   -389  81  10  644
1477472644.569:   -394  81  10  644
1477472644.570:   -425  81  10  644
1477472644.571:   -497  81  10  644
1477472644.573:   -592  81  10  644
1477472644.573:   -674  81  10  644
1477472644.575:   -737  81  10  644
1477472644.576:   -809  81  10  644
1477472644.577:   -927  81  10  644
1477472644.584:  -1085  81  10  644
1477472644.658:  -1247  81  10  644
1477472644.663:  -1369  81  10  644
1477472644.663:  -1434  81  10  644
1477472644.664:  -1463  81  10  644
1477472644.664:  -1492  81  10  644
1477472644.664:  -1522  81  10  644
1477472644.664:  -1535  81  10  644
1477472644.664:  -1512  81  10  644
1477472644.664:  -1460  81  10  644
1477472644.665:  -1410  81  10  644
1477472644.665:  -1388  81  10  644
1477472644.665:  -1400  81  10  644
1477472644.665:  -1424  81  10  644
1477472644.665:  -1429  81  10  644
1477472644.665:  -1415  81  10  644
1477472644.666:  -1415  81  10  644
1477472644.666:  -1463 111  14  588
1477472644.666:  -1572 111  14  588
1477472644.666:  -1705 111  14  588
1477472644.666:  -1807 111  14  588
1477472644.667:  -1873 111  14  588
1477472644.667:  -1953 111  14  588
1477472644.668:  -2094 111  14  588
1477472644.668:  -2281 111  14  588
1477472644.668:  -2444 111  14  588
1477472644.668:  -2532 111  14  588
1477472644.669:  -2566 111  14  588
1477472644.669:  -2616 111  14  588
1477472644.669:  -2720 111  14  588
1477472644.669:  -2848 111  14  588
1477472644.670:  -2959 111  14  588
1477472644.670:  -3050 111  14  588
1477472644.670:  -3149 111  14  588
1477472644.671:  -3270 111  14  588
1477472644.671:  -3397 111  14  588
1477472644.671:  -3520 111  14  588
1477472644.677:  -3654 111  14  588
1477472644.680:  -3816 111  14  588
1477472644.682:  -3993 111  14  588
1477472644.683:  -4142 111  14  588
1477472644.683:  -4231 111  14  588
1477472644.683:  -4274 111  14  588
1477472644.684:  -4306 111  14  588
1477472644.684:  -4343 111  14  588
1477472644.684:  -4372 111  14  588
1477472644.685:  -4382 111  14  588
1477472644.685:  -4384 111  14  588
1477472644.685:  -4406 111  14  588
1477472644.686:  -4464 111  14  588
1477472644.686:  -4550 111  14  588
1477472644.686:  -4643 111  14  588
1477472644.702:  -4736 111  14  588
1477472644.703:  -4829 111  14  588
1477472644.709:  -4922 111  14  588
1477472644.711:  -5008 111  14  588
1477472644.712:  -5086 111  14  588
1477472644.712:  -5148 111  14  588
1477472644.725:  -5186 111  14  588
1477472644.726:  -5187 111  14  588
1477472644.727:  -5145 111  14  588
1477472644.729:  -5074 111  14  588
1477472644.737:  -5002 111  14  588
1477472644.740:  -4945 111  14  588
1477472644.740:  -4895 111  14  588
1477472644.742:  -4833 111  14  588
1477472644.742:  -4754 111  14  588
1477472644.742:  -4675 111  14  588
1477472644.743:  -4614 111  14  588
1477472644.743:  -4582 111  14  588
1477472644.743:  -4586 111  14  588
1477472644.743:  -4618 111  14  588
1477472644.748:  -4659 111  14  588
1477472644.749:  -4684 111  14  588
1477472644.749:  -4677 111  14  588
1477472644.749:  -4640 111  14  588
1477472644.749:  -4596 111  14  588
1477472644.750:  -4557 111  14  588
1477472644.750:  -4519 111  14  588
1477472644.750:  -4474 111  14  588
1477472644.750:  -4422 111  14  588
1477472644.750:  -4368 111  14  588
1477472644.751:  -4314 111  14  588
1477472644.751:  -4262 111  14  588
1477472644.751:  -4213 111  14  588
1477472644.751:  -4171 111  14  588
1477472644.752:  -4130 111  14  588
1477472644.752:  -4075 111  14  588
1477472644.756:  -3993 111  14  588
1477472644.757:  -3890 111  14  588
1477472644.757:  -3791 111  14  588
1477472644.758:  -3714 111  14  588
1477472644.775:  -3669 111  14  588
1477472644.775:  -3662 111  14  588
1477472644.775:  -3677 111  14  588
1477472644.775:  -3680 111  14  588
1477472644.775:  -3647 111  14  588
1477472644.776:  -3590 111  14  588
1477472644.776:  -3544 111  14  588
1477472644.776:  -3527 111  14  588
1477472644.776:  -3511 111  14  588
1477472644.783:  -3458 111  14  588
1477472644.791:  -3374 111  14  588
1477472644.800:  -3309 111  14  588
1477472644.801:  -3286 111  14  588
1477472644.803:  -3257 111  14  588
1477472644.804:  -3172 111  14  588
1477472644.805:  -3051 111  14  588
1477472644.808:  -2971 111  14  588
1477472644.819:  -2975 111  14  588
1477472644.820:  -3009 111  14  588
1477472644.821:  -2984 111  14  588
1477472644.821:  -2891 111  14  588
1477472644.824:  -2818 111  14  588
1477472644.825:  -2839 111  14  588
1477472644.825:  -2921 111  14  588
1477472644.827:  -2959 111  14  588
1477472644.827:  -2904 111  14  588
1477472644.827:  -2804 111  14  588
1477472644.827:  -2732 111  14  588
1477472644.828:  -2700 111  14  588
1477472644.828:  -2659 111  14  588
1477472644.844:  -2579 111  14  588
1477472644.844:  -2490 111  14  588
1477472644.845:  -2445 111  14  588
1477472644.845:  -2432 111  14  588
1477472644.845:  -2398 111  14  588
1477472644.846:  -2316 111  14  588
1477472644.846:  -2229 111  14  588
1477472644.847:  -2192 111  14  588
1477472644.847:  -2209 111  14  588
1477472644.848:  -2222 111  14  588
1477472644.848:  -2174 111  14  588
1477472644.848:  -2070 111  14  588
1477472644.849:  -1970 111  14  588
1477472644.849:  -1915 111  14  588
1477472644.850:  -1899 111  14  588
1477472644.851:  -1899 111  14  588
1477472644.852:  -1905 111  14  588
1477472644.853:  -1917 111  14  588
1477472644.855:  -1943 111  14  588
1477472644.856:  -1979 111  14  588
1477472644.867:  -2027 111  14  588
1477472644.868:  -2093 111  14  588
1477472644.868:  -2173 111  14  588
1477472644.868:  -2243 111  14  588
1477472644.870:  -2267 111  14  588
1477472644.871:  -2240 111  14  588
1477472644.873:  -2189 111  14  588
1477472644.876:  -2144 111  14  588
1477472644.877:  -2120 111  14  588
1477472644.882:  -2107 111  14  588
1477472644.893:  -2091 111  14  588
1477472644.893:  -2067 111  14  588
1477472644.893:  -2044 111  14  588
1477472644.893:  -2031 111  14  588
1477472644.893:  -2016 111  14  588
1477472644.894:  -1977 111  14  588
1477472644.896:  -1915 111  14  588
1477472644.896:  -1849 111  14  588
1477472644.902:  -1809 111  14  588
1477472644.904:  -1785 111  14  588
1477472644.913:  -1740 111  14  588
1477472644.913:  -1650 111  14  588
1477472644.913:  -1549 111  14  588
1477472644.914:  -1487 111  14  588
1477472644.914:  -1476 111  14  588
1477472644.920:  -1476 111  14  588
1477472644.924:  -1457 111  14  588
1477472644.925:  -1419 111  14  588
1477472644.933:  -1390 111  14  588
1477472644.934:  -1376 111  14  588
1477472644.935:  -1352 111  14  588
1477472644.935:  -1307 111  14  588
1477472644.935:  -1263 111  14  588
1477472644.937:  -1245 111  14  588
1477472644.940:  -1248 111  14  588
1477472644.940:  -1235 111  14  588
1477472644.940:  -1186 111  14  588
1477472644.941:  -1118 111  14  588
1477472644.942:  -1052 111  14  588
1477472644.942:  -1000 111  14  588
1477472644.943:   -960 111  14  588
1477472644.943:   -925 111  14  588
1477472644.947:   -886 111  14  588
1477472644.949:   -832 111  14  588
1477472644.950:   -755 111  14  588
1477472644.952:   -664 111  14  588
1477472644.957:   -594 111  14  588
1477472644.961:   -566 111  14  588
1477472644.969:   -570 111  14  588
1477472645.023:   -580 111  14  588
1477472645.031:   -572 111  14  588
1477472645.031:   -544 111  14  588
1477472645.031:   -500 111  14  588
1477472645.031:   -460 111  14  588
1477472645.031:   -427 111  14  588
1477472645.032:   -386 111  14  588
1477472645.032:   -320 111  14  588
1477472645.032:   -228 111  14  588
1477472645.032:   -139 111  14  588
1477472645.032:    -97 111  14  588
1477472645.033:   -115 111  14  588
1477472645.033:   -161 111  14  588
1477472645.033:   -187 111  14  588
1477472645.033:   -195 111  14  588
1477472645.033:   -227 111  14  588
1477472645.033:   -308 111  14  588
1477472645.033:   -401 111  14  588
1477472645.034:   -440 111  14  588
1477472645.034:   -394 111  14  588
1477472645.034:   -316 111  14  588
1477472645.034:   -292 111  14  588
1477472645.034:   -346 111  14  588
1477472645.034:   -421 111  14  588
1477472645.034:   -444 111  14  588
1477472645.035:   -406 111  14  588
1477472645.035:   -371 111  14  588
1477472645.035:   -397 111  14  588
1477472645.035:   -472 111  14  588
1477472645.035:   -533 111  14  588
1477472645.035:   -543 111  14  588
1477472645.036:   -538 111  14  588
1477472645.036:   -579 111  14  588
1477472645.036:   -678 111  14  588
1477472645.036:   -788 111  14  588
1477472645.037:   -853 111  14  588
1477472645.037:   -879 111  14  588
1477472645.041:   -913 127  16  568
1477472645.041:   -991 127  16  568
1477472645.041:  -1087 127  16  568
1477472645.043:  -1152 127  16  568
1477472645.045:  -1180 127  16  568
1477472645.046:  -1215 127  16  568
1477472645.048:  -1284 127  16  568
1477472645.050:  -1368 127  16  568
1477472645.050:  -1426 127  16  568
1477472645.053:  -1460 127  16  568
1477472645.054:  -1513 127  16  568
1477472645.056:  -1620 127  16  568
1477472645.068:  -1739 127  16  568
1477472645.069:  -1805 127  16  568
1477472645.070:  -1811 127  16  568
1477472645.070:  -1826 127  16  568
1477472645.071:  -1914 127  16  568
1477472645.072:  -2061 127  16  568
1477472645.073:  -2197 127  16  568
1477472645.074:  -2273 127  16  568
1477472645.074:  -2316 127  16  568
1477472645.075:  -2386 127  16  568
1477472645.085:  -2512 127  16  568
1477472645.086:  -2663 127  16  568
1477472645.086:  -2798 127  16  568
1477472645.086:  -2898 127  16  568
1477472645.086:  -2971 127  16  568
1477472645.086:  -3029 127  16  568
1477472645.089:  -3096 127  16  568
1477472645.090:  -3186 127  16  568
1477472645.091:  -3285 127  16  568
1477472645.093:  -3352 127  16  568
1477472645.097:  -3373 127  16  568
1477472645.102:  -3379 127  16  568
1477472645.102:  -3424 127  16  568
1477472645.107:  -3494 127  16  568
1477472645.107:  -3492 127  16  568
1477472645.108:  -3335 127  16  568
1477472645.112:  -3057 127  16  568
1477472645.114:  -2770 127  16  568
1477472645.116:  -2545 127  16  568
1477472645.116:  -2339 127  16  568
1477472645.124:  -2074 127  16  568
1477472645.124:  -1747 127  16  568
1477472645.151:  -1468 127  16  568
1477472645.151:  -1350 127  16  568
1477472645.151:  -1396 127  16  568
1477472645.152:  -1503 127  16  568
1477472645.152:  -1559 127  16  568
1477472645.152:  -1524 127  16  568
1477472645.153:  -1433 127  16  568
1477472645.153:  -1350 127  16  568
1477472645.153:  -1330 127  16  568
1477472645.154:  -1388 127  16  568
1477472645.154:  -1499 127  16  568
1477472645.155:  -1657 127  16  568
1477472645.155:  -1901 127  16  568
1477472645.160:  -2288 127  16  568
1477472645.174:  -2823 127  16  568
1477472645.175:  -3414 127  16  568
1477472645.175:  -3905 127  16  568
1477472645.176:  -4200 127  16  568
1477472645.176:  -4315 127  16  568
1477472645.176:  -4315 127  16  568
1477472645.177:  -4219 127  16  568
1477472645.177:  -3997 127  16  568
1477472645.177:  -3640 127  16  568
1477472645.178:  -3225 127  16  568
1477472645.178:  -2876 127  16  568
1477472645.178:  -2672 127  16  568
1477472645.178:  -2598 127  16  568
1477472645.178:  -2593 127  16  568
1477472645.179:  -2623 127  16  568
1477472645.179:  -2679 127  16  568
1477472645.180:  -2731 127  16  568
1477472645.182:  -2730 127  16  568
1477472645.183:  -2650 127  16  568
1477472645.187:  -2517 127  16  568
1477472645.204:  -2369 127  16  568
1477472645.205:  -2217 127  16  568
1477472645.205:  -2032 127  16  568
1477472645.205:  -1815 127  16  568
1477472645.205:  -1636 127  16  568
1477472645.205:  -1575 127  16  568
1477472645.206:  -1622 127  16  568
1477472645.211:  -1691 127  16  568
1477472645.211:  -1706 127  16  568
1477472645.211:  -1668 127  16  568
1477472645.212:  -1625 127  16  568
1477472645.217:  -1594 127  16  568
1477472645.224:  -1542 127  16  568
1477472645.224:  -1440 127  16  568
1477472645.225:  -1311 127  16  568
1477472645.225:  -1214 127  16  568
1477472645.225:  -1172 127  16  568
1477472645.225:  -1164 127  16  568
1477472645.228:  -1160 127  16  568
1477472645.229:  -1164 127  16  568
1477472645.229:  -1194 127  16  568
1477472645.230:  -1263 127  16  568
1477472645.232:  -1363 127  16  568
1477472645.232:  -1476 127  16  568
1477472645.235:  -1581 127  16  568
1477472645.235:  -1659 127  16  568
1477472645.244:  -1693 127  16  568
1477472645.244:  -1686 127  16  568
1477472645.244:  -1665 127  16  568
1477472645.244:  -1648 127  16  568
1477472645.245:  -1614 127  16  568
1477472645.245:  -1527 127  16  568
1477472645.245:  -1389 127  16  568
1477472645.247:  -1247 127  16  568
1477472645.248:  -1158 127  16  568
1477472645.251:  -1124 127  16  568
1477472645.254:  -1099 127  16  568
1477472645.254:  -1037 127  16  568
1477472645.264:   -950 127  16  568
1477472645.264:   -885 127  16  568
1477472645.264:   -856 127  16  568
1477472645.264:   -830 127  16  568
1477472645.264:   -770 127  16  568
1477472645.269:   -677 127  16  568
1477472645.269:   -581 127  16  568
1477472645.271:   -500 127  16  568
1477472645.272:   -422 127  16  568
1477472645.275:   -325 127  16  568
1477472645.284:   -217 127  16  568
1477472645.284:   -125 127  16  568
1477472645.286:    -60 127  16  568
1477472645.286:     -7 127  16  568
1477472645.286:     46 127  16  568
1477472645.286:     95 127  16  568
1477472645.289:    127 127  16  568
1477472645.292:    148 127  16  568
1477472645.295:    176 127  16  568
1477472645.296:    223 127  16  568
1477472645.306:    270 127  16  568
1477472645.306:    291 127  16  568
1477472645.307:    275 127  16  568
1477472645.307:    238 127  16  568
1477472645.307:    204 127  16  568
1477472645.307:    202 127  16  568
1477472645.307:    228 127  16  568
1477472645.314:    254 127  16  568
1477472645.315:    242 127  16  568
1477472645.316:    189 127  16  568
1477472645.317:    127 127  16  568
1477472645.323:     98 127  16  568
1477472645.332:    105 127  16  568
1477472645.332:    101 127  16  568
1477472645.332:     31 127  16  568
1477472645.332:    -98 127  16  568
1477472645.332:   -216 127  16  568
1477472645.334:   -258 127  16  568
1477472645.335:   -231 127  16  568
1477472645.336:   -196 127  16  568
1477472645.337:   -203 127  16  568
1477472645.340:   -251 127  16  568
1477472645.414:   -304 127  16  568
1477472645.414:   -327 127  16  568
1477472645.414:   -328 127  16  568
1477472645.414:   -337 127  16  568
1477472645.414:   -380 127  16  568
1477472645.415:   -450 127  16  568
1477472645.415:   -511 127  16  568
1477472645.415:   -536 127  16  568
1477472645.415:   -533 127  16  568
1477472645.415:   -556 127  16  568
1477472645.415:   -643 127  16  568
1477472645.415:   -766 127  16  568
1477472645.416:   -845 127  16  568
1477472645.416:   -846 127  16  568
1477472645.416:   -818 127  16  568
1477472645.416:   -843 127  16  568
1477472645.416:   -949 127  16  568
1477472645.416:  -1076 127  16  568
1477472645.416:  -1153 127  16  568
1477472645.417:  -1183 127  16  568
1477472645.417:  -1228 127  16  568
1477472645.417:  -1315 127  16  568
1477472645.417:  -1400 127  16  568
1477472645.418:  -1428 127  16  568
1477472645.418:  -1397 127  16  568
1477472645.418:  -1369 127  16  568
1477472645.418:  -1379 127  16  568
1477472645.418:  -1397 127  16  568
1477472645.418:  -1372 127  16  568
1477472645.418:  -1312 127  16  568
1477472645.419:  -1288 127  16  568
1477472645.419:  -1346 127  16  568
1477472645.419:  -1446 127  16  568
1477472645.419:  -1526 127  16  568
1477472645.419:  -1554 127  16  568
1477472645.419:  -1544 127  16  568
1477472645.420:  -1513 127  16  568
1477472645.420:  -1468 127  16  568
1477472645.421:  -1429 127  16  568
1477472645.421:  -1435 127  16  568
1477472645.421:  -1505 127  16  568
1477472645.422:  -1601 127  16  568
1477472645.426:  -1668 127  16  568
1477472645.427:  -1710 127  16  568
1477472645.438:  -1785 127  16  568
1477472645.439:  -1916 127  16  568
1477472645.439:  -2036 127  16  568
1477472645.439:  -2070 127  16  568
1477472645.439:  -2011 127  16  568
1477472645.439:  -1932 127  16  568
1477472645.439:  -1893 127  16  568
1477472645.439:  -1889 127  16  568
1477472645.445:  -1888 127  16  568
1477472645.445:  -1903 127  16  568
1477472645.452:  -1971 127  16  568
1477472645.453:  -2088 127  16  568
1477472645.462:  -2199 127  16  568
1477472645.463:  -2272 127  16  568
1477472645.463:  -2324 127  16  568
1477472645.464:  -2377 127  16  568
1477472645.465:  -2400 127  16  568
1477472645.466:  -2341 127  16  568
1477472645.466:  -2200 127  16  568
1477472645.467:  -2056 127  16  568
1477472645.467:  -1967 127  16  568
1477472645.468:  -1897 127  16  568
1477472645.471:  -1773 127  16  568
1477472645.472:  -1602 127  16  568
1477472645.480:  -1468 127  16  568
1477472645.481:  -1447 127  16  568
1477472645.482:  -1508 127  16  568
1477472645.485:  -1550 127  16  568
1477472645.487:  -1521 127  16  568
1477472645.489:  -1466 127  16  568
1477472645.502:  -1467 127  16  568
1477472645.503:  -1532 127  16  568
1477472645.503:  -1591 127  16  568
1477472645.504:  -1582 127  16  568
1477472645.505:  -1519 127  16  568
1477472645.505:  -1453 127  16  568
1477472645.506:  -1407 127  16  568
1477472645.507:  -1351 127  16  568
1477472645.508:  -1254 127  16  568
1477472645.508:  -1143 127  16  568
1477472645.509:  -1064 127  16  568
1477472645.510:  -1018 127  16  568
1477472645.510:   -961 127  16  568
1477472645.511:   -866 127  16  568
1477472645.512:   -776 127  16  568
1477472645.514:   -752 127  16  568
1477472645.515:   -800 127  16  568
1477472645.519:   -855 127  16  568
1477472645.520:   -858 127  16  568
1477472645.521:   -819 127  16  568
1477472645.523:   -802 127  16  568
1477472645.527:   -836 127  16  568
1477472645.542:   -873 127  16  568
1477472645.542:   -852 127  16  568
1477472645.543:   -781 127  16  568
1477472645.543:   -716 127  16  568
1477472645.543:   -694 127  16  568
1477472645.544:   -693 127  16  568
1477472645.544:   -669 127  16  568
1477472645.544:   -620 127  16  568
1477472645.545:   -602 127  16  568
1477472645.549:   -640 127  16  568
1477472645.560:   -690 127  16  568
1477472645.560:   -700 127  16  568
1477472645.561:   -689 127  16  568
1477472645.561:   -723 127  16  568
1477472645.561:   -817 127  16  568
1477472645.562:   -896 127  16  568
1477472645.564:   -871 127  16  568
1477472645.565:   -756 127  16  568
1477472645.566:   -664 127  16  568
1477472645.566:   -667 127  16  568
1477472645.569:   -704 127  16  568
1477472645.569:   -654 127  16  568
1477472645.578:   -488 127  16  568
1477472645.578:   -308 127  16  568
1477472645.579:   -221 127  16  568
1477472645.580:   -220 127  16  568
1477472645.581:   -201 127  16  568
1477472645.581:    -93 127  16  568
1477472645.608:     60 127  16  568
1477472645.609:    172 127  16  568
1477472645.610:    221 127  16  568
1477472645.611:    265 127  16  568
1477472645.615:    361 127  16  568
1477472645.616:    496 127  16  568
1477472645.617:    614 127  16  568
1477472645.618:    677 127  16  568
1477472645.618:    694 127  16  568
1477472645.618:    702 127  16  568
1477472645.619:    724 127  16  568
1477472645.619:    762 127  16  568
1477472645.620:    809 127  16  568
1477472645.620:    857 127  16  568
1477472645.621:    897 127  16  568
1477472645.621:    922 127  16  568
1477472645.621:    937 127  16  568
1477472645.622:    952 127  16  568
1477472645.637:    974 127  16  568
1477472645.637:    991 127  16  568
1477472645.638:    980 127  16  568
1477472645.638:    926 127  16  568
1477472645.638:    853 127  16  568
1477472645.638:    810 127  16  568
1477472645.638:    833 127  16  568
1477472645.639:    895 127  16  568
1477472645.639:    946 127  16  568
1477472645.639:    959 127  16  568
1477472645.639:    964 127  16  568
1477472645.639:   1000 127  16  568
1477472645.644:   1072 127  16  568
1477472645.644:   1128 127  16  568
1477472645.645:   1126 127  16  568
1477472645.647:   1080 127  16  568
1477472645.673:   1029 127  16  568
1477472645.673:    986 127  16  568
1477472645.674:    931 127  16  568
1477472645.675:    856 127  16  568
1477472645.676:    783 127  16  568
1477472645.677:    743 127  16  568
1477472645.678:    737 127  16  568
1477472645.679:    742 127  16  568
1477472645.679:    746 127  16  568
1477472645.680:    774 127  16  568
1477472645.682:    851 127  16  568
1477472645.683:    963 127  16  568
1477472645.695:   1071 127  16  568
1477472645.697:   1137 127  16  568
1477472645.697:   1148 127  16  568
1477472645.698:   1111 127  16  568
1477472645.698:   1053 127  16  568
1477472645.699:   1006 127  16  568
1477472645.699:    981 127  16  568
1477472645.700:    973 127  16  568
1477472645.700:    954 127  16  568
1477472645.701:    906 127  16  568
1477472645.701:    853 127  16  568
1477472645.702:    838 127  16  568
1477472645.702:    870 127  16  568
1477472645.703:    922 127  16  568
1477472645.714:    960 127  16  568
1477472645.714:    982 127  16  568
1477472645.714:   1007 127  16  568
1477472645.715:   1048 127  16  568
1477472645.715:   1091 127  16  568
1477472645.715:   1132 127  16  568
1477472645.716:   1187 127  16  568
1477472645.716:   1277 127  16  568
1477472645.718:   1387 127  16  568
1477472645.718:   1478 127  16  568
1477472645.719:   1531 127  16  568
1477472645.723:   1579 127  16  568
1477472645.726:   1662 127  16  568
1477472645.728:   1783 127  16  568
1477472645.729:   1899 127  16  568
1477472645.736:   1981 127  16  568
1477472645.750:   2037 127  16  568
1477472645.751:   2095 127  16  568
1477472645.752:   2157 127  16  568
1477472645.754:   2199 127  16  568
1477472645.755:   2222 127  16  568
1477472645.756:   2258 127  16  568
1477472645.758:   2319 127  16  568
1477472645.758:   2373 127  16  568
1477472645.770:   2381 127  16  568
1477472645.771:   2365 127  16  568
1477472645.773:   2383 127  16  568
1477472645.774:   2465 127  16  568
1477472645.775:   2562 127  16  568
1477472645.776:   2603 127  16  568
1477472645.777:   2577 127  16  568
1477472645.778:   2545 127  16  568
1477472645.778:   2554 127  16  568
1477472645.779:   2593 127  16  568
1477472645.791:   2615 127  16  568
1477472645.791:   2604 127  16  568
1477472645.792:   2569 127  16  568
1477472645.792:   2522 127  16  568
1477472645.793:   2456 127  16  568
1477472645.793:   2370 127  16  568
1477472645.794:   2274 127  16  568
1477472645.794:   2174 127  16  568
1477472645.795:   2055 127  16  568
1477472645.795:   1919 127  16  568
1477472645.796:   1809 127  16  568
1477472645.797:   1778 127  16  568
1477472645.797:   1820 127  16  568
1477472645.798:   1873 127  16  568
1477472645.809:   1887 127  16  568
1477472645.810:   1879 127  16  568
1477472645.811:   1899 127  16  568
1477472645.811:   1965 127  16  568
1477472645.812:   2024 127  16  568
1477472645.812:   2013 127  16  568
1477472645.813:   1939 127  16  568
1477472645.813:   1857 127  16  568
1477472645.817:   1821 127  16  568
1477472645.819:   1839 127  16  568
1477472645.819:   1884 127  16  568
1477472645.820:   1927 127  16  568
1477472645.820:   1956 127  16  568
1477472645.820:   1978 127  16  568
1477472645.821:   2005 127  16  568
1477472645.828:   2037 127  16  568
1477472645.835:   2061 127  16  568
1477472645.835:   2061 127  16  568
1477472645.837:   2034 127  16  568
1477472645.837:   1991 127  16  568
1477472645.837:   1957 127  16  568
1477472645.838:   1937 127  16  568
1477472645.838:   1919 127  16  568
1477472645.839:   1893 127  16  568
1477472645.839:   1871 127  16  568
1477472645.844:   1859 127  16  568
1477472645.854:   1861 127  16  568
1477472645.854:   1878 127  16  568
1477472645.855:   1906 127  16  568
1477472645.855:   1928 127  16  568
1477472645.856:   1939 127  16  568
1477472645.856:   1935 127  16  568
1477472645.856:   1932 127  16  568
1477472645.859:   1941 127  16  568
1477472645.859:   1951 127  16  568
1477472645.861:   1931 127  16  568
1477472645.865:   1881 127  16  568
1477472645.866:   1832 127  16  568
1477472645.884:   1801 127  16  568
1477472645.886:   1760 127  16  568
1477472645.887:   1673 127  16  568
1477472645.887:   1565 127  16  568
1477472645.888:   1539 127  16  568
1477472645.888:   1672 127  16  568
1477472645.889:   1940 127  16  568
1477472645.889:   2227 127  16  568
1477472645.889:   2434 127  16  568
1477472645.890:   2575 127  16  568
1477472645.890:   2748 127  16  568
1477472645.890:   3010 127  16  568
1477472645.894:   3296 127  16  568
1477472645.894:   3458 127  16  568
1477472645.896:   3383 127  16  568
1477472645.898:   3113 127  16  568
1477472645.911:   2816 127  16  568
1477472645.912:   2640 127  16  568
1477472645.912:   2587 127  16  568
1477472645.912:   2536 127  16  568
1477472645.912:   2381 127  16  568
1477472645.913:   2135 127  16  568
1477472645.913:   1886 127  16  568
1477472645.913:   1664 127  16  568
1477472645.918:   1393 127  16  568
1477472645.919:    984 127  16  568
1477472645.929:    458 127  16  568
1477472645.929:    -61 127  16  568
1477472645.934:   -465 127  16  568
1477472645.934:   -745 127  16  568
1477472645.934:   -940 127  16  568
1477472645.935:  -1059 127  16  568
1477472645.935:  -1056 127  16  568
1477472645.936:   -890 127  16  568
1477472645.937:   -592 127  16  568
1477472645.939:   -251 127  16  568
1477472645.940:     44 127  16  568
1477472645.941:    252 127  16  568
1477472645.943:    364 127  16  568
1477472645.950:    399 127  16  568
1477472645.958:    402 127  16  568
1477472645.958:    417 127  16  568
1477472645.959:    453 127  16  568
1477472645.959:    488 127  16  568
1477472645.960:    490 127  16  568
1477472645.961:    471 127  16  568
1477472645.962:    490 127  16  568
1477472645.965:    593 127  16  568
1477472645.975:    745 127  16  568
1477472645.976:    854 127  16  568
1477472645.976:    856 127  16  568
1477472645.977:    780 127  16  568
1477472645.977:    716 127  16  568
1477472645.978:    723 127  16  568
1477472645.980:    772 127  16  568
1477472645.981:    789 127  16  568
1477472645.983:    733 127  16  568
1477472645.984:    637 127  16  568
1477472645.985:    568 127  16  568
1477472645.986:    560 127  16  568
1477472645.988:    596 127  16  568
1477472645.990:    624 127  16  568
1477472645.992:    596 127  16  568
1477472645.993:    513 127  16  568
1477472645.994:    427 127  16  568
1477472645.998:    397 127  16  568
1477472645.998:    437 127  16  568
1477472646.000:    505 127  16  568
1477472646.022:    551 127  16  568
1477472646.023:    577 127  16  568
1477472646.023:    632 127  16  568
1477472646.024:    751 127  16  568
1477472646.025:    901 127  16  568
1477472646.025:   1025 127  16  568
1477472646.028:   1115 127  16  568
1477472646.028:   1228 127  16  568
1477472646.029:   1413 127  16  568
1477472646.029:   1645 127  16  568
1477472646.029:   1837 127  16  568
1477472646.030:   1936 127  16  568
1477472646.031:   1983 127  16  568
1477472646.031:   2068 127  16  568
1477472646.035:   2229 127  16  568
1477472646.037:   2421 127  16  568
1477472646.068:   2588 127  16  568
1477472646.068:   2722 127  16  568
1477472646.068:   2858 127  16  568
1477472646.069:   3014 127  16  568
1477472646.069:   3171 127  16  568
1477472646.069:   3307 127  16  568
1477472646.069:   3427 127  16  568
1477472646.069:   3546 127  16  568
1477472646.069:   3637 127  16  568
1477472646.070:   3663 127  16  568
1477472646.071:   3630 127  16  568
1477472646.071:   3600 127  16  568
1477472646.071:   3626 127  16  568
1477472646.071:   3688 127  16  568
1477472646.071:   3719 127  16  568
1477472646.075:   3684 127  16  568
1477472646.075:   3629 127  16  568
1477472646.075:   3623 127  16  568
1477472646.075:   3677 127  16  568
1477472646.075:   3736 127  16  568
1477472646.075:   3757 127  16  568
1477472646.076:   3747 127  16  568
1477472646.080:   3734 127  16  568
1477472646.080:   3720 122  16  652
1477472646.092:   3680 122  16  652
1477472646.092:   3604 122  16  652
1477472646.092:   3515 122  16  652
1477472646.092:   3444 122  16  652
1477472646.094:   3380 122  16  652
1477472646.094:   3273 122  16  652
1477472646.094:   3108 122  16  652
1477472646.095:   2922 122  16  652
1477472646.095:   2783 122  16  652
1477472646.101:   2717 122  16  652
1477472646.101:   2687 122  16  652
1477472646.101:   2631 122  16  652
1477472646.110:   2537 122  16  652
1477472646.110:   2455 122  16  652
1477472646.111:   2445 122  16  652
1477472646.111:   2510 122  16  652
1477472646.111:   2598 122  16  652
1477472646.115:   2648 122  16  652
1477472646.115:   2636 122  16  652
1477472646.120:   2587 122  16  652
1477472646.138:   2539 122  16  652
1477472646.138:   2522 122  16  652
1477472646.139:   2532 122  16  652
1477472646.139:   2554 122  16  652
1477472646.139:   2569 122  16  652
1477472646.139:   2569 122  16  652
1477472646.140:   2567 122  16  652
1477472646.140:   2581 122  16  652
1477472646.140:   2606 122  16  652
1477472646.140:   2617 122  16  652
1477472646.144:   2592 122  16  652
1477472646.144:   2543 122  16  652
1477472646.145:   2494 122  16  652
1477472646.146:   2462 122  16  652
1477472646.146:   2436 122  16  652
1477472646.152:   2396 122  16  652
1477472646.162:   2338 122  16  652
1477472646.162:   2293 122  16  652
1477472646.162:   2290 122  16  652
1477472646.162:   2314 122  16  652
1477472646.163:   2319 122  16  652
1477472646.163:   2283 122  16  652
1477472646.165:   2224 122  16  652
1477472646.165:   2197 122  16  652
1477472646.167:   2228 122  16  652
1477472646.168:   2282 122  16  652
1477472646.169:   2293 122  16  652
1477472646.172:   2239 122  16  652
1477472646.173:   2159 122  16  652
1477472646.177:   2109 122  16  652
1477472646.178:   2090 122  16  652
1477472646.181:   2058 122  16  652
1477472646.182:   1965 122  16  652
1477472646.183:   1833 122  16  652
1477472646.186:   1722 122  16  652
1477472646.187:   1666 122  16  652
1477472646.191:   1635 122  16  652
1477472646.191:   1577 122  16  652
1477472646.205:   1475 122  16  652
1477472646.206:   1355 122  16  652
1477472646.206:   1250 122  16  652
1477472646.206:   1153 122  16  652
1477472646.206:   1027 122  16  652
1477472646.207:    855 122  16  652
1477472646.208:    661 122  16  652
1477472646.209:    491 122  16  652
1477472646.209:    358 122  16  652
1477472646.214:    241 122  16  652
1477472646.226:    100 122  16  652
1477472646.226:    -82 122  16  652
1477472646.226:   -281 122  16  652
1477472646.226:   -459 122  16  652
1477472646.226:   -612 122  16  652
1477472646.227:   -779 122  16  652
1477472646.227:  -1002 122  16  652
1477472646.228:  -1275 122  16  652
1477472646.229:  -1540 122  16  652
1477472646.231:  -1729 122  16  652
1477472646.232:  -1822 122  16  652
1477472646.240:  -1873 122  16  652
1477472646.241:  -1951 122  16  652
1477472646.242:  -2074 122  16  652
1477472646.243:  -2188 122  16  652
1477472646.245:  -2234 122  16  652
1477472646.246:  -2206 122  16  652
1477472646.249:  -2175 122  16  652
1477472646.251:  -2225 122  16  652
1477472646.251:  -2370 122  16  652
1477472646.256:  -2544 122  16  652
1477472646.256:  -2669 122  16  652
1477472646.259:  -2736 122  16  652
1477472646.260:  -2797 122  16  652
1477472646.275:  -2897 122  16  652
1477472646.276:  -3029 122  16  652
1477472646.276:  -3138 122  16  652
1477472646.276:  -3186 122  16  652
1477472646.276:  -3181 122  16  652
1477472646.277:  -3161 122  16  652
1477472646.277:  -3144 122  16  652
1477472646.277:  -3141 122  16  652
1477472646.277:  -3161 122  16  652
1477472646.278:  -3197 122  16  652
1477472646.282:  -3219 122  16  652
1477472646.283:  -3202 122  16  652
1477472646.286:  -3165 122  16  652
1477472646.287:  -3157 122  16  652
1477472646.298:  -3191 122  16  652
1477472646.299:  -3221 122  16  652
1477472646.299:  -3181 122  16  652
1477472646.299:  -3079 122  16  652
1477472646.300:  -3000 122  16  652
1477472646.300:  -3009 122  16  652
1477472646.302:  -3081 122  16  652
1477472646.302:  -3138 122  16  652
1477472646.304:  -3150 122  16  652
1477472646.306:  -3164 122  16  652
1477472646.317:  -3230 122  16  652
1477472646.317:  -3340 122  16  652
1477472646.318:  -3439 122  16  652
1477472646.318:  -3502 122  16  652
1477472646.318:  -3556 122  16  652
1477472646.318:  -3627 122  16  652
1477472646.320:  -3692 122  16  652
1477472646.325:  -3716 122  16  652
1477472646.325:  -3708 122  16  652
1477472646.326:  -3702 122  16  652
1477472646.327:  -3709 122  16  652
1477472646.328:  -3697 122  16  652
1477472646.331:  -3624 122  16  652
1477472646.335:  -3505 122  16  652
1477472646.342:  -3391 122  16  652
1477472646.343:  -3306 122  16  652
1477472646.343:  -3215 122  16  652
1477472646.343:  -3078 122  16  652
1477472646.343:  -2918 122  16  652
1477472646.345:  -2783 122  16  652
1477472646.348:  -2687 122  16  652
1477472646.351:  -2590 122  16  652
1477472646.352:  -2456 122  16  652
1477472646.353:  -2314 122  16  652
1477472646.365:  -2228 122  16  652
1477472646.365:  -2215 122  16  652
1477472646.365:  -2214 122  16  652
1477472646.365:  -2158 122  16  652
1477472646.365:  -2049 122  16  652
1477472646.366:  -1938 122  16  652
1477472646.369:  -1846 122  16  652
1477472646.369:  -1737 122  16  652
1477472646.373:  -1571 122  16  652
1477472646.373:  -1352 122  16  652
1477472646.374:  -1139 122  16  652
1477472646.378:   -967 122  16  652
1477472646.388:   -813 122  16  652
1477472646.447:   -635 122  16  652
1477472646.450:   -436 122  16  652
1477472646.450:   -263 122  16  652
1477472646.450:   -162 122  16  652
1477472646.451:   -132 122  16  652
1477472646.451:   -127 122  16  652
1477472646.451:   -104 122  16  652
1477472646.451:    -51 122  16  652
1477472646.452:      3 122  16  652
1477472646.452:     17 122  16  652
1477472646.452:    -23 122  16  652
1477472646.452:    -93 122  16  652
1477472646.452:   -143 122  16  652
1477472646.452:   -137 122  16  652
1477472646.452:    -99 122  16  652
1477472646.453:    -82 122  16  652
1477472646.453:   -105 122  16  652
1477472646.453:   -136 122  16  652
1477472646.453:   -142 122  16  652
1477472646.453:   -136 122  16  652
1477472646.454:   -164 122  16  652
1477472646.454:   -244 122  16  652
1477472646.454:   -331 122  16  652
1477472646.454:   -367 122  16  652
1477472646.454:   -350 122  16  652
1477472646.454:   -332 122  16  652
1477472646.455:   -356 122  16  652
1477472646.455:   -410 122  16  652
1477472646.455:   -453 122  16  652
1477472646.455:   -465 122  16  652
1477472646.455:   -455 122  16  652
1477472646.455:   -447 122  16  652
1477472646.456:   -471 122  16  652
1477472646.457:   -540 122  16  652
1477472646.457:   -633 122  16  652
1477472646.457:   -700 122  16  652
1477472646.457:   -704 122  16  652
1477472646.457:   -669 122  16  652
1477472646.462:   -673 122  16  652
1477472646.476:   -764 122  16  652
1477472646.476:   -890 122  16  652
1477472646.477:   -959 122  16  652
1477472646.477:   -960 122  16  652
1477472646.477:   -964 122  16  652
1477472646.477:  -1050 122  16  652
1477472646.477:  -1192 122  16  652
1477472646.477:  -1290 122  16  652
1477472646.478:  -1298 122  16  652
1477472646.481:  -1286 122  16  652
1477472646.481:  -1344 122  16  652
1477472646.487:  -1475 122  16  652
1477472646.500:  -1592 122  16  652
1477472646.500:  -1629 122  16  652
1477472646.501:  -1611 122  16  652
1477472646.501:  -1611 122  16  652
1477472646.501:  -1666 122  16  652
1477472646.501:  -1752 122  16  652
1477472646.501:  -1820 122  16  652
1477472646.502:  -1848 122  16  652
1477472646.502:  -1861 122  16  652
1477472646.502:  -1898 122  16  652
1477472646.502:  -1969 122  16  652
1477472646.503:  -2052 122  16  652
1477472646.504:  -2098 122  16  652
1477472646.507:  -2069 122  16  652
1477472646.508:  -1981 122  16  652
1477472646.511:  -1905 122  16  652
1477472646.526:  -1897 122  16  652
1477472646.526:  -1936 122  16  652
1477472646.526:  -1945 122  16  652
1477472646.527:  -1878 122  16  652
1477472646.527:  -1780 122  16  652
1477472646.527:  -1735 122  16  652
1477472646.527:  -1764 122  16  652
1477472646.527:  -1791 122  16  652
1477472646.528:  -1739 122  16  652
1477472646.531:  -1616 122  16  652
1477472646.532:  -1504 122  16  652
1477472646.535:  -1449 122  16  652
1477472646.546:  -1425 122  16  652
1477472646.546:  -1385 122  16  652
1477472646.546:  -1329 122  16  652
1477472646.547:  -1303 122  16  652
1477472646.547:  -1337 122  16  652
1477472646.547:  -1400 122  16  652
1477472646.548:  -1443 122  16  652
1477472646.549:  -1465 122  16  652
1477472646.550:  -1498 122  16  652
1477472646.553:  -1545 122  16  652
1477472646.565:  -1587 122  16  652
1477472646.565:  -1607 122  16  652
1477472646.565:  -1625 122  16  652
1477472646.565:  -1677 122  16  652
1477472646.566:  -1771 122  16  652
1477472646.567:  -1867 122  16  652
1477472646.570:  -1937 122  16  652
1477472646.570:  -1999 122  16  652
1477472646.571:  -2094 122  16  652
1477472646.573:  -2233 122  16  652
1477472646.574:  -2388 122  16  652
1477472646.577:  -2521 122  16  652
1477472646.584:  -2611 122  16  652
1477472646.585:  -2666 122  16  652
1477472646.585:  -2705 122  16  652
1477472646.585:  -2753 122  16  652
1477472646.592:  -2833 122  16  652
1477472646.593:  -2946 122  16  652
1477472646.595:  -3058 122  16  652
1477472646.598:  -3124 122  16  652
1477472646.600:  -3141 122  16  652
1477472646.605:  -3159 122  16  652
1477472646.609:  -3229 122  16  652
1477472646.611:  -3338 122  16  652
1477472646.620:  -3428 122  16  652
1477472646.620:  -3452 122  16  652
1477472646.620:  -3426 122  16  652
1477472646.620:  -3393 122  16  652
1477472646.620:  -3372 122  16  652
1477472646.621:  -3336 122  16  652
1477472646.621:  -3267 122  16  652
1477472646.623:  -3192 122  16  652
1477472646.624:  -3136 122  16  652
1477472646.625:  -3078 122  16  652
1477472646.625:  -2978 122  16  652
1477472646.628:  -2820 122  16  652
1477472646.629:  -2646 122  16  652
1477472646.631:  -2506 122  16  652
1477472646.632:  -2412 122  16  652
1477472646.635:  -2330 122  16  652
1477472646.649:  -2226 122  16  652
1477472646.649:  -2090 122  16  652
1477472646.650:  -1926 122  16  652
1477472646.650:  -1726 122  16  652
1477472646.650:  -1482 122  16  652
1477472646.650:  -1222 122  16  652
1477472646.651:   -981 122  16  652
1477472646.652:   -766 122  16  652
1477472646.652:   -541 122  16  652
1477472646.657:   -291 122  16  652
1477472646.657:    -83 122  16  652
1477472646.659:    -41 122  16  652
1477472646.659:   -216 122  16  652
1477472646.661:   -507 122  16  652
1477472646.662:   -742 122  16  652
1477472646.663:   -848 122  16  652
1477472646.664:   -911 122  16  652
1477472646.668:  -1060 122  16  652
1477472646.671:  -1320 122  16  652
1477472646.671:  -1594 122  16  652
1477472646.677:  -1793 122  16  652
1477472646.678:  -1975 122  16  652
1477472646.691:  -2269 122  16  652
1477472646.691:  -2708 122  16  652
1477472646.692:  -3176 122  16  652
1477472646.692:  -3536 122  16  652
1477472646.697:  -3763 122  16  652
1477472646.697:  -3941 122  16  652
1477472646.699:  -4116 122  16  652
1477472646.699:  -4230 122  16  652
1477472646.701:  -4185 122  16  652
1477472646.703:  -3983 122  16  652
1477472646.717:  -3741 122  16  652
1477472646.717:  -3576 122  16  652
1477472646.717:  -3506 122  16  652
1477472646.717:  -3478 122  16  652
1477472646.717:  -3442 122  16  652
1477472646.718:  -3403 122  16  652
1477472646.718:  -3385 122  16  652
1477472646.722:  -3402 122  16  652
1477472646.745:  -3432 122  16  652
1477472646.746:  -3457 122  16  652
1477472646.748:  -3467 122  16  652
1477472646.748:  -3450 122  16  652
1477472646.754:  -3395 122  16  652
1477472646.754:  -3318 122  16  652
1477472646.765:  -3246 122  16  652
1477472646.765:  -3196 122  16  652
1477472646.765:  -3160 122  16  652
1477472646.766:  -3132 122  16  652
1477472646.766:  -3122 122  16  652
1477472646.766:  -3152 122  16  652
1477472646.766:  -3218 122  16  652
1477472646.766:  -3280 122  16  652
1477472646.770:  -3307 122  16  652
1477472646.770:  -3324 122  16  652
1477472646.770:  -3390 122  16  652
1477472646.770:  -3531 122  16  652
1477472646.771:  -3698 122  16  652
1477472646.771:  -3831 122  16  652
1477472646.771:  -3907 122  16  652
1477472646.771:  -3952 122  16  652
1477472646.771:  -3995 122  16  652
1477472646.773:  -4037 122  16  652
1477472646.774:  -4064 122  16  652
1477472646.775:  -4078 122  16  652
1477472646.793:  -4094 122  16  652
1477472646.793:  -4105 122  16  652
1477472646.793:  -4093 122  16  652
1477472646.793:  -4060 122  16  652
1477472646.793:  -4026 122  16  652
1477472646.793:  -3992 122  16  652
1477472646.794:  -3933 122  16  652
1477472646.794:  -3831 122  16  652
1477472646.794:  -3718 122  16  652
1477472646.795:  -3647 122  16  652
1477472646.795:  -3631 122  16  652
1477472646.796:  -3626 122  16  652
1477472646.796:  -3587 122  16  652
1477472646.812:  -3540 122  16  652
1477472646.824:  -3542 122  16  652
1477472646.824:  -3602 122  16  652
1477472646.829:  -3673 122  16  652
1477472646.829:  -3707 122  16  652
1477472646.835:  -3710 122  16  652
1477472646.835:  -3700 122  16  652
1477472646.858:  -3679 122  16  652
1477472646.859:  -3626 122  16  652
1477472646.860:  -3558 122  16  652
1477472646.861:  -3521 122  16  652
1477472646.861:  -3522 122  16  652
1477472646.863:  -3491 122  16  652
1477472646.866:  -3374 122  16  652
1477472646.867:  -3224 122  16  652
1477472646.867:  -3162 122  16  652
1477472646.868:  -3231 122  16  652
1477472646.869:  -3344 122  16  652
1477472646.869:  -3376 122  16  652
1477472646.869:  -3306 122  16  652
1477472646.869:  -3230 122  16  652
1477472646.882:  -3235 122  16  652
1477472646.883:  -3290 122  16  652
1477472646.883:  -3296 122  16  652
1477472646.883:  -3215 122  16  652
1477472646.883:  -3096 122  16  652
1477472646.884:  -3000 122  16  652
1477472646.884:  -2941 122  16  652
1477472646.892:  -2898 122  16  652
1477472646.892:  -2859 122  16  652
1477472646.902:  -2841 122  16  652
1477472646.909:  -2861 113  15  712
1477472646.910:  -2903 113  15  712
1477472646.910:  -2950 113  15  712
1477472646.911:  -3010 113  15  712
1477472646.911:  -3100 113  15  712
1477472646.912:  -3208 113  15  712
1477472646.912:  -3294 113  15  712
1477472646.913:  -3321 113  15  712
1477472646.913:  -3279 113  15  712
1477472646.914:  -3206 113  15  712
1477472646.915:  -3155 113  15  712
1477472646.915:  -3154 113  15  712
1477472646.915:  -3175 113  15  712
1477472646.918:  -3172 113  15  712
1477472646.919:  -3132 113  15  712
1477472646.920:  -3097 113  15  712
1477472646.921:  -3119 113  15  712
1477472646.928:  -3199 113  15  712
1477472646.928:  -3265 113  15  712
1477472646.928:  -3252 113  15  712
1477472646.929:  -3177 113  15  712
1477472646.929:  -3109 113  15  712
1477472646.929:  -3083 113  15  712
1477472646.930:  -3060 113  15  712
1477472646.930:  -2988 113  15  712
1477472646.930:  -2879 113  15  712
1477472646.931:  -2796 113  15  712
1477472646.931:  -2786 113  15  712
1477472646.931:  -2813 113  15  712
1477472646.931:  -2818 113  15  712
1477472646.931:  -2782 113  15  712
1477472646.932:  -2747 113  15  712
1477472646.932:  -2747 113  15  712
1477472646.932:  -2779 113  15  712
1477472646.932:  -2807 113  15  712
1477472646.933:  -2810 113  15  712
1477472646.933:  -2793 113  15  712
1477472646.934:  -2779 113  15  712
1477472646.934:  -2776 113  15  712
1477472646.934:  -2776 113  15  712
1477472646.937:  -2760 113  15  712
1477472646.940:  -2719 113  15  712
1477472646.940:  -2647 113  15  712
1477472646.943:  -2556 113  15  712
1477472646.947:  -2471 113  15  712
1477472646.949:  -2413 113  15  712
1477472646.968:  -2394 113  15  712
1477472646.968:  -2413 113  15  712
1477472646.969:  -2463 113  15  712
1477472646.970:  -2531 113  15  712
1477472646.971:  -2593 113  15  712
1477472646.972:  -2646 113  15  712
1477472646.972:  -2704 113  15  712
1477472646.973:  -2786 113  15  712
1477472646.973:  -2897 113  15  712
1477472646.974:  -3008 113  15  712
1477472646.975:  -3077 113  15  712
1477472646.975:  -3104 113  15  712
1477472646.976:  -3131 113  15  712
1477472646.980:  -3196 113  15  712
1477472646.992:  -3297 113  15  712
1477472646.993:  -3399 113  15  712
1477472646.993:  -3467 113  15  712
1477472646.993:  -3509 113  15  712
1477472646.994:  -3563 113  15  712
1477472646.994:  -3656 113  15  712
1477472646.994:  -3780 113  15  712
1477472646.995:  -3919 113  15  712
1477472646.995:  -4074 113  15  712
1477472646.995:  -4241 113  15  712
1477472646.995:  -4396 113  15  712
1477472646.996:  -4512 113  15  712
1477472647.003:  -4601 113  15  712
1477472647.003:  -4698 113  15  712
1477472647.007:  -4827 113  15  712
1477472647.008:  -4963 113  15  712
1477472647.013:  -5056 113  15  712
1477472647.013:  -5096 113  15  712
1477472647.016:  -5136 113  15  712
1477472647.018:  -5225 113  15  712
1477472647.018:  -5352 113  15  712
1477472647.023:  -5461 113  15  712
1477472647.039:  -5531 113  15  712
1477472647.039:  -5588 113  15  712
1477472647.039:  -5672 113  15  712
1477472647.039:  -5773 113  15  712
1477472647.040:  -5845 113  15  712
1477472647.040:  -5860 113  15  712
1477472647.040:  -5846 113  15  712
1477472647.040:  -5849 113  15  712
1477472647.045:  -5883 113  15  712
1477472647.045:  -5919 113  15  712
1477472647.045:  -5921 113  15  712
1477472647.051:  -5876 113  15  712
1477472647.051:  -5813 113  15  712
1477472647.053:  -5780 113  15  712
1477472647.068:  -5800 113  15  712
1477472647.068:  -5831 113  15  712
1477472647.068:  -5812 113  15  712
1477472647.069:  -5723 113  15  712
1477472647.069:  -5615 113  15  712
1477472647.069:  -5567 113  15  712
1477472647.070:  -5605 113  15  712
1477472647.070:  -5673 113  15  712
1477472647.071:  -5699 113  15  712
1477472647.071:  -5684 113  15  712
1477472647.071:  -5699 113  15  712
1477472647.073:  -5787 113  15  712
1477472647.074:  -5915 113  15  712
1477472647.075:  -6009 113  15  712
1477472647.075:  -6031 113  15  712
1477472647.076:  -6000 113  15  712
1477472647.077:  -5945 113  15  712
1477472647.077:  -5869 113  15  712
1477472647.078:  -5770 113  15  712
1477472647.078:  -5661 113  15  712
1477472647.078:  -5547 113  15  712
1477472647.083:  -5400 113  15  712
1477472647.084:  -5196 113  15  712
1477472647.088:  -4967 113  15  712
1477472647.096:  -4783 113  15  712
1477472647.097:  -4682 113  15  712
1477472647.097:  -4611 113  15  712
1477472647.097:  -4486 113  15  712
1477472647.098:  -4291 113  15  712
1477472647.098:  -4110 113  15  712
1477472647.099:  -4024 113  15  712
1477472647.109:  -4017 113  15  712
1477472647.110:  -4010 113  15  712
1477472647.112:  -3958 113  15  712
1477472647.114:  -3887 113  15  712
1477472647.115:  -3837 113  15  712
1477472647.119:  -3813 113  15  712
1477472647.119:  -3780 113  15  712
1477472647.134:  -3723 113  15  712
1477472647.135:  -3661 113  15  712
1477472647.136:  -3613 113  15  712
1477472647.136:  -3563 113  15  712
1477472647.136:  -3472 113  15  712
1477472647.137:  -3337 113  15  712
1477472647.138:  -3183 113  15  712
1477472647.138:  -3050 113  15  712
1477472647.140:  -2954 113  15  712
1477472647.141:  -2889 113  15  712
1477472647.141:  -2833 113  15  712
1477472647.141:  -2783 113  15  712
1477472647.166:  -2759 113  15  712
1477472647.166:  -2779 113  15  712
1477472647.166:  -2840 113  15  712
1477472647.167:  -2912 113  15  712
1477472647.167:  -2955 113  15  712
1477472647.167:  -2946 113  15  712
1477472647.167:  -2894 113  15  712
1477472647.167:  -2832 113  15  712
1477472647.167:  -2780 113  15  712
1477472647.168:  -2739 113  15  712
1477472647.168:  -2690 113  15  712
1477472647.169:  -2616 113  15  712
1477472647.177:  -2512 113  15  712
1477472647.178:  -2411 113  15  712
1477472647.182:  -2359 113  15  712
1477472647.183:  -2365 113  15  712
1477472647.198:  -2395 113  15  712
1477472647.199:  -2398 113  15  712
1477472647.199:  -2367 113  15  712
1477472647.199:  -2350 113  15  712
1477472647.199:  -2402 113  15  712
1477472647.199:  -2529 113  15  712
1477472647.200:  -2679 113  15  712
1477472647.200:  -2799 113  15  712
1477472647.200:  -2885 113  15  712
1477472647.200:  -2957 113  15  712
1477472647.202:  -3023 113  15  712
1477472647.204:  -3067 113  15  712
1477472647.204:  -3072 113  15  712
1477472647.204:  -3039 113  15  712
1477472647.204:  -2986 113  15  712
1477472647.207:  -2929 113  15  712
1477472647.207:  -2872 113  15  712
1477472647.209:  -2820 113  15  712
1477472647.210:  -2792 113  15  712
1477472647.280:  -2798 113  15  712
1477472647.283:  -2828 113  15  712
1477472647.283:  -2855 113  15  712
1477472647.283:  -2861 113  15  712
1477472647.284:  -2844 113  15  712
1477472647.284:  -2820 113  15  712
1477472647.284:  -2795 113  15  712
1477472647.284:  -2757 113  15  712
1477472647.284:  -2700 113  15  712
1477472647.285:  -2639 113  15  712
1477472647.285:  -2586 113  15  712
1477472647.285:  -2539 113  15  712
1477472647.285:  -2496 113  15  712
1477472647.285:  -2467 113  15  712
1477472647.285:  -2481 113  15  712
1477472647.286:  -2559 113  15  712
1477472647.286:  -2699 113  15  712
1477472647.286:  -2871 113  15  712
1477472647.286:  -3043 113  15  712
1477472647.286:  -3209 113  15  712
1477472647.287:  -3368 113  15  712
1477472647.288:  -3512 113  15  712
1477472647.288:  -3623 113  15  712
1477472647.301:  -3697 113  15  712
1477472647.301:  -3733 113  15  712
1477472647.302:  -3746 113  15  712
1477472647.302:  -3754 113  15  712
1477472647.302:  -3770 113  15  712
1477472647.302:  -3784 113  15  712
1477472647.302:  -3787 113  15  712
1477472647.302:  -3769 113  15  712
1477472647.302:  -3730 113  15  712
1477472647.303:  -3682 113  15  712
1477472647.303:  -3641 113  15  712
1477472647.303:  -3601 113  15  712
1477472647.303:  -3548 113  15  712
1477472647.305:  -3478 113  15  712
1477472647.305:  -3400 113  15  712
1477472647.305:  -3332 113  15  712
1477472647.305:  -3284 113  15  712
1477472647.305:  -3239 113  15  712
1477472647.306:  -3167 113  15  712
1477472647.306:  -3057 113  15  712
1477472647.306:  -2943 113  15  712
1477472647.306:  -2876 113  15  712
1477472647.307:  -2868 113  15  712
1477472647.308:  -2878 113  15  712
1477472647.308:  -2853 113  15  712
1477472647.308:  -2784 113  15  712
1477472647.309:  -2717 113  15  712
1477472647.309:  -2687 113  15  712
1477472647.310:  -2663 113  15  712
1477472647.311:  -2585 113  15  712
1477472647.312:  -2440 113  15  712
1477472647.314:  -2290 113  15  712
1477472647.327:  -2203 113  15  712
1477472647.327:  -2176 113  15  712
1477472647.327:  -2148 113  15  712
1477472647.327:  -2073 113  15  712
1477472647.327:  -1974 113  15  712
1477472647.328:  -1906 113  15  712
1477472647.328:  -1889 113  15  712
1477472647.328:  -1884 113  15  712
1477472647.335:  -1824 113  15  712
1477472647.335:  -1686 113  15  712
1477472647.339:  -1497 113  15  712
1477472647.345:  -1313 113  15  712
1477472647.351:  -1176 113  15  712
1477472647.354:  -1082 113  15  712
1477472647.355:   -995 113  15  712
1477472647.362:   -887 113  15  712
1477472647.362:   -767 113  15  712
1477472647.362:   -673 113  15  712
1477472647.365:   -635 113  15  712
1477472647.365:   -651 113  15  712
1477472647.384:   -678 113  15  712
1477472647.384:   -671 113  15  712
1477472647.384:   -615 113  15  712
1477472647.404:   -534 113  15  712
1477472647.428:   -469 113  15  712
1477472647.428:   -458 113  15  712
1477472647.429:   -505 113  15  712
1477472647.429:   -574 113  15  712
1477472647.429:   -618 113  15  712
1477472647.429:   -623 113  15  712
1477472647.429:   -603 113  15  712
1477472647.429:   -588 113  15  712
1477472647.429:   -603 113  15  712
1477472647.429:   -639 113  15  712
1477472647.430:   -663 113  15  712
1477472647.430:   -650 113  15  712
1477472647.430:   -599 113  15  712
1477472647.430:   -544 113  15  712
1477472647.430:   -517 113  15  712
1477472647.430:   -528 113  15  712
1477472647.431:   -558 113  15  712
1477472647.431:   -595 113  15  712
1477472647.431:   -644 113  15  712
1477472647.431:   -711 113  15  712
1477472647.431:   -745 113  15  712
1477472647.431:   -674 113  15  712
1477472647.431:   -489 113  15  712
1477472647.432:   -244 113  15  712
1477472647.432:    -14 113  15  712
1477472647.432:    193 113  15  712
1477472647.432:    427 113  15  712
1477472647.435:    708 113  15  712
1477472647.436:    970 113  15  712
1477472647.441:   1124 113  15  712
1477472647.442:   1145 113  15  712
1477472647.453:   1082 113  15  712
1477472647.462:    989 113  15  712
1477472647.462:    894 113  15  712
1477472647.462:    814 113  15  712
1477472647.462:    761 113  15  712
1477472647.462:    728 113  15  712
1477472647.462:    665 113  15  712
1477472647.463:    516 113  15  712
1477472647.463:    280 113  15  712
1477472647.463:      5 113  15  712
1477472647.463:   -269 113  15  712
1477472647.465:   -555 113  15  712
1477472647.465:   -877 113  15  712
1477472647.465:  -1208 113  15  712
1477472647.466:  -1480 113  15  712
1477472647.467:  -1642 113  15  712
1477472647.469:  -1684 113  15  712
1477472647.469:  -1634 113  15  712
1477472647.469:  -1518 113  15  712
1477472647.470:  -1351 113  15  712
1477472647.470:  -1143 113  15  712
1477472647.471:   -923 113  15  712
1477472647.472:   -728 113  15  712
1477472647.474:   -598 113  15  712
1477472647.474:   -550 113  15  712
1477472647.476:   -556 113  15  712
1477472647.477:   -562 113  15  712
1477472647.478:   -540 113  15  712
1477472647.488:   -495 113  15  712
1477472647.497:   -451 113  15  712
1477472647.499:   -395 113  15  712
1477472647.499:   -285 113  15  712
1477472647.500:   -109 113  15  712
1477472647.501:     74 113  15  712
1477472647.509:    196 113  15  712
1477472647.533:    240 113  15  712
1477472647.534:    256 113  15  712
1477472647.534:    299 113  15  712
1477472647.534:    354 113  15  712
1477472647.534:    365 113  15  712
1477472647.535:    312 113  15  712
1477472647.535:    231 113  15  712
1477472647.535:    174 113  15  712
1477472647.535:    152 113  15  712
1477472647.535:    144 113  15  712
1477472647.536:    119 113  15  712
1477472647.536:     75 113  15  712
1477472647.536:     28 113  15  712
1477472647.537:    -26 113  15  712
1477472647.537:    -99 113  15  712
1477472647.538:   -192 113  15  712
1477472647.538:   -287 113  15  712
1477472647.538:   -368 113  15  712
1477472647.538:   -423 113  15  712
1477472647.538:   -455 113  15  712
1477472647.539:   -481 113  15  712
1477472647.539:   -516 113  15  712
1477472647.540:   -549 113  15  712
1477472647.542:   -551 113  15  712
1477472647.542:   -497 113  15  712
1477472647.543:   -399 113  15  712
1477472647.545:   -298 113  15  712
1477472647.550:   -247 113  15  712
1477472647.551:   -249 113  15  712
1477472647.552:   -268 113  15  712
1477472647.568:   -272 113  15  712
1477472647.568:   -263 113  15  712
1477472647.568:   -261 113  15  712
1477472647.568:   -277 113  15  712
1477472647.569:   -303 113  15  712
1477472647.569:   -328 113  15  712
1477472647.569:   -357 113  15  712
1477472647.570:   -398 113  15  712
1477472647.571:   -431 113  15  712
1477472647.572:   -434 113  15  712
1477472647.573:   -403 113  15  712
1477472647.577:   -366 113  15  712
1477472647.587:   -351 113  15  712
1477472647.588:   -371 113  15  712
1477472647.588:   -421 113  15  712
1477472647.588:   -486 113  15  712
1477472647.588:   -548 113  15  712
1477472647.588:   -597 113  15  712
1477472647.591:   -642 113  15  712
1477472647.591:   -701 113  15  712
1477472647.593:   -774 113  15  712
1477472647.594:   -832 113  15  712
1477472647.594:   -839 113  15  712
1477472647.597:   -800 113  15  712
1477472647.600:   -758 113  15  712
1477472647.621:   -751 113  15  712
1477472647.630:   -774 113  15  712
1477472647.631:   -789 113  15  712
1477472647.631:   -777 113  15  712
1477472647.631:   -759 113  15  712
1477472647.632:   -756 113  15  712
1477472647.633:   -775  89  11  680
1477472647.634:   -808  89  11  680
1477472647.634:   -850  89  11  680
1477472647.634:   -907  89  11  680
1477472647.635:   -973  89  11  680
1477472647.635:  -1036  89  11  680
1477472647.636:  -1096  89  11  680
1477472647.637:  -1169  89  11  680
1477472647.637:  -1259  89  11  680
1477472647.637:  -1349  89  11  680
1477472647.639:  -1411  89  11  680
1477472647.645:  -1430  89  11  680
1477472647.645:  -1421  89  11  680
1477472647.653:  -1411  89  11  680
1477472647.653:  -1412  89  11  680
1477472647.660:  -1417  89  11  680
1477472647.661:  -1401  89  11  680
1477472647.661:  -1352  89  11  680
1477472647.662:  -1274  89  11  680
1477472647.663:  -1198  89  11  680
1477472647.665:  -1170  89  11  680
1477472647.677:  -1203  89  11  680
1477472647.678:  -1258  89  11  680
1477472647.678:  -1288  89  11  680
1477472647.678:  -1283  89  11  680
1477472647.678:  -1290  89  11  680
1477472647.679:  -1353  89  11  680
1477472647.679:  -1459  89  11  680
1477472647.679:  -1533  89  11  680
1477472647.679:  -1517  89  11  680
1477472647.679:  -1435  89  11  680
1477472647.679:  -1373  89  11  680
1477472647.688:  -1382  89  11  680
1477472647.688:  -1445  89  11  680
1477472647.693:  -1507  89  11  680
1477472647.697:  -1536  89  11  680
1477472647.709:  -1565  89  11  680
1477472647.718:  -1637  89  11  680
1477472647.718:  -1745  89  11  680
1477472647.719:  -1832  89  11  680
1477472647.720:  -1859  89  11  680
1477472647.720:  -1853  89  11  680
1477472647.720:  -1862  89  11  680
1477472647.721:  -1891  89  11  680
1477472647.721:  -1894  89  11  680
1477472647.723:  -1837  89  11  680
1477472647.725:  -1752  89  11  680
1477472647.737:  -1716  89  11  680
1477472647.737:  -1763  89  11  680
1477472647.737:  -1845  89  11  680
1477472647.737:  -1888  89  11  680
1477472647.737:  -1882  89  11  680
1477472647.737:  -1879  89  11  680
1477472647.737:  -1919  89  11  680
1477472647.738:  -1985  89  11  680
1477472647.738:  -2030  89  11  680
1477472647.738:  -2030  89  11  680
1477472647.738:  -1999  89  11  680
1477472647.738:  -1964  89  11  680
1477472647.738:  -1937  89  11  680
1477472647.739:  -1925  89  11  680
1477472647.739:  -1950  89  11  680
1477472647.743:  -2021  89  11  680
1477472647.743:  -2104  89  11  680
1477472647.744:  -2157  89  11  680
1477472647.747:  -2177  89  11  680
1477472647.748:  -2209  89  11  680
1477472647.753:  -2284  89  11  680
1477472647.754:  -2370  89  11  680
1477472647.754:  -2393  89  11  680
1477472647.757:  -2326  89  11  680
1477472647.759:  -2226  89  11  680
1477472647.759:  -2170  89  11  680
1477472647.763:  -2169  89  11  680
1477472647.764:  -2181  89  11  680
1477472647.768:  -2183  89  11  680
1477472647.769:  -2196  89  11  680
1477472647.771:  -2244  89  11  680
1477472647.772:  -2299  89  11  680
1477472647.784:  -2309  89  11  680
1477472647.784:  -2270  89  11  680
1477472647.785:  -2228  89  11  680
1477472647.785:  -2214  89  11  680
1477472647.788:  -2180  89  11  680
1477472647.788:  -2070  89  11  680
1477472647.791:  -1907  89  11  680
1477472647.791:  -1777  89  11  680
1477472647.793:  -1733  89  11  680
1477472647.794:  -1738  89  11  680
1477472647.794:  -1724  89  11  680
1477472647.795:  -1692  89  11  680
1477472647.799:  -1706  89  11  680
1477472647.799:  -1793  89  11  680
1477472647.804:  -1887  89  11  680
1477472647.805:  -1919  89  11  680
1477472647.819:  -1901  89  11  680
1477472647.819:  -1907  89  11  680
1477472647.819:  -1977  89  11  680
1477472647.820:  -2064  89  11  680
1477472647.820:  -2093  89  11  680
1477472647.820:  -2055  89  11  680
1477472647.820:  -2004  89  11  680
1477472647.821:  -2002  89  11  680
1477472647.821:  -2049  89  11  680
1477472647.822:  -2103  89  11  680
1477472647.832:  -2128  89  11  680
1477472647.832:  -2132  89  11  680
1477472647.844:  -2144  89  11  680
1477472647.845:  -2187  89  11  680
1477472647.845:  -2254  89  11  680
1477472647.845:  -2304  89  11  680
1477472647.854:  -2303  89  11  680
1477472647.854:  -2267  89  11  680
1477472647.877:  -2242  89  11  680
1477472647.877:  -2252  89  11  680
1477472647.878:  -2273  89  11  680
1477472647.878:  -2261  89  11  680
1477472647.878:  -2196  89  11  680
1477472647.878:  -2112  89  11  680
1477472647.878:  -2060  89  11  680
1477472647.879:  -2053  89  11  680
1477472647.879:  -2056  89  11  680
1477472647.879:  -2026  89  11  680
1477472647.879:  -1949  89  11  680
1477472647.879:  -1848  89  11  680
1477472647.880:  -1775  89  11  680
1477472647.880:  -1767  89  11  680
1477472647.880:  -1824  89  11  680
1477472647.880:  -1899  89  11  680
1477472647.880:  -1947  89  11  680
1477472647.880:  -1958  89  11  680
1477472647.881:  -1970  89  11  680
1477472647.881:  -2019  89  11  680
1477472647.881:  -2096  89  11  680
1477472647.883:  -2142  89  11  680
1477472647.884:  -2120  89  11  680
1477472647.886:  -2064  89  11  680
1477472647.887:  -2045  89  11  680
1477472647.891:  -2100  89  11  680
1477472647.901:  -2183  89  11  680
1477472647.901:  -2208  89  11  680
1477472647.901:  -2140  89  11  680
1477472647.902:  -2034  89  11  680
1477472647.909:  -1980  89  11  680
1477472647.910:  -1998  89  11  680
1477472647.912:  -2031  89  11  680
1477472647.917:  -2002  89  11  680
1477472647.931:  -1895  89  11  680
1477472647.932:  -1765  89  11  680
1477472647.932:  -1671  89  11  680
1477472647.934:  -1614  89  11  680
1477472648.027:  -1545  89  11  680
1477472648.027:  -1427  89  11  680
1477472648.027:  -1276  89  11  680
1477472648.027:  -1135  89  11  680
1477472648.027:  -1023  89  11  680
1477472648.028:   -930  89  11  680
1477472648.028:   -837  89  11  680
1477472648.028:   -745  89  11  680
1477472648.028:   -676  89  11  680
1477472648.028:   -642  89  11  680
1477472648.028:   -619  89  11  680
1477472648.028:   -573  89  11  680
1477472648.029:   -502  89  11  680
1477472648.029:   -444  89  11  680
1477472648.029:   -435  89  11  680
1477472648.029:   -468  89  11  680
1477472648.029:   -496  89  11  680
1477472648.029:   -486  89  11  680
1477472648.029:   -459  89  11  680
1477472648.030:   -460  89  11  680
1477472648.030:   -504  89  11  680
1477472648.030:   -561  89  11  680
1477472648.030:   -607  89  11  680
1477472648.030:   -651  89  11  680
1477472648.031:   -713  89  11  680
1477472648.031:   -786  89  11  680
1477472648.031:   -838  89  11  680
1477472648.031:   -850  89  11  680
1477472648.031:   -835  89  11  680
1477472648.031:   -818  89  11  680
1477472648.031:   -793  89  11  680
1477472648.032:   -736  89  11  680
1477472648.032:   -661  89  11  680
1477472648.032:   -622  89  11  680
1477472648.032:   -652  89  11  680
1477472648.032:   -740  89  11  680
1477472648.032:   -852  89  11  680
1477472648.033:   -981  89  11  680
1477472648.033:  -1147  89  11  680
1477472648.033:  -1356  89  11  680
1477472648.033:  -1570  89  11  680
1477472648.033:  -1745  89  11  680
1477472648.033:  -1868  89  11  680
1477472648.033:  -1959  89  11  680
1477472648.036:  -2018  89  11  680
1477472648.037:  -2022  89  11  680
1477472648.037:  -1953  89  11  680
1477472648.037:  -1825  89  11  680
1477472648.037:  -1685  89  11  680
1477472648.037:  -1573  89  11  680
1477472648.037:  -1503  89  11  680
1477472648.037:  -1468  89  11  680
1477472648.038:  -1457  89  11  680
1477472648.038:  -1463  89  11  680
1477472648.038:  -1480  89  11  680
1477472648.038:  -1511  89  11  680
1477472648.038:  -1568  89  11  680
1477472648.041:  -1642  89  11  680
1477472648.054:  -1707  89  11  680
1477472648.054:  -1737  89  11  680
1477472648.055:  -1721  89  11  680
1477472648.055:  -1667  89  11  680
1477472648.055:  -1582  89  11  680
1477472648.055:  -1477  89  11  680
1477472648.056:  -1371  89  11  680
1477472648.056:  -1291  89  11  680
1477472648.056:  -1249  89  11  680
1477472648.056:  -1233  89  11  680
1477472648.056:  -1223  89  11  680
1477472648.056:  -1221  89  11  680
1477472648.057:  -1238  89  11  680
1477472648.057:  -1266  89  11  680
1477472648.063:  -1277  89  11  680
1477472648.063:  -1252  89  11  680
1477472648.074:  -1199  89  11  680
1477472648.074:  -1134  89  11  680
1477472648.074:  -1051  89  11  680
1477472648.074:   -932  89  11  680
1477472648.075:   -790  89  11  680
1477472648.090:   -673  89  11  680
1477472648.093:   -622  89  11  680
1477472648.093:   -616  89  11  680
1477472648.096:   -596  89  11  680
1477472648.096:   -540  89  11  680
1477472648.097:   -483  89  11  680
1477472648.097:   -462  89  11  680
1477472648.098:   -469  89  11  680
1477472648.099:   -468  89  11  680
1477472648.099:   -441  89  11  680
1477472648.099:   -414  89  11  680
1477472648.118:   -422  89  11  680
1477472648.118:   -457  89  11  680
1477472648.118:   -484  89  11  680
1477472648.118:   -500  89  11  680
1477472648.118:   -545  89  11  680
1477472648.119:   -649  89  11  680
1477472648.119:   -798  89  11  680
1477472648.119:   -947  89  11  680
1477472648.119:  -1067  89  11  680
1477472648.120:  -1167  89  11  680
1477472648.120:  -1283  89  11  680
1477472648.120:  -1420  89  11  680
1477472648.143:  -1554  89  11  680
1477472648.143:  -1654  89  11  680
1477472648.144:  -1720  89  11  680
1477472648.144:  -1772  89  11  680
1477472648.144:  -1837  89  11  680
1477472648.144:  -1921  89  11  680
1477472648.144:  -2006  89  11  680
1477472648.144:  -2067  89  11  680
1477472648.145:  -2110  89  11  680
1477472648.145:  -2157  89  11  680
1477472648.145:  -2211  89  11  680
1477472648.145:  -2248  89  11  680
1477472648.145:  -2241  89  11  680
1477472648.145:  -2201  89  11  680
1477472648.146:  -2184  89  11  680
1477472648.146:  -2233  89  11  680
1477472648.146:  -2339  89  11  680
1477472648.146:  -2442  89  11  680
1477472648.169:  -2503  89  11  680
1477472648.170:  -2543  89  11  680
1477472648.181:  -2601  89  11  680
1477472648.181:  -2686  89  11  680
1477472648.181:  -2777  89  11  680
1477472648.181:  -2845  89  11  680
1477472648.182:  -2887  89  11  680
1477472648.182:  -2923  89  11  680
1477472648.182:  -2966  89  11  680
1477472648.182:  -3025  89  11  680
1477472648.183:  -3097  89  11  680
1477472648.183:  -3172  89  11  680
1477472648.183:  -3231  89  11  680
1477472648.183:  -3261  89  11  680
1477472648.184:  -3280  89  11  680
1477472648.184:  -3304  89  11  680
1477472648.185:  -3309  89  11  680
1477472648.186:  -3245  89  11  680
1477472648.188:  -3093  89  11  680
1477472648.194:  -2888  89  11  680
1477472648.203:  -2680  89  11  680
1477472648.203:  -2491  89  11  680
1477472648.203:  -2297  89  11  680
1477472648.203:  -2072  89  11  680
1477472648.204:  -1835  89  11  680
1477472648.204:  -1642  89  11  680
1477472648.204:  -1531  89  11  680
1477472648.204:  -1506  89  11  680
1477472648.204:  -1532  89  11  680
1477472648.206:  -1557  89  11  680
1477472648.206:  -1531  89  11  680
1477472648.211:  -1457  89  11  680
1477472648.212:  -1392  89  11  680
1477472648.213:  -1411  89  11  680
1477472648.215:  -1540  89  11  680
1477472648.215:  -1734  89  11  680
1477472648.218:  -1943  89  11  680
1477472648.218:  -2196  89  11  680
1477472648.219:  -2577  89  11  680
1477472648.222:  -3105  89  11  680
1477472648.235:  -3665  89  11  680
1477472648.235:  -4090  89  11  680
1477472648.235:  -4308  89  11  680
1477472648.235:  -4387  89  11  680
1477472648.235:  -4426  89  11  680
1477472648.236:  -4429  89  11  680
1477472648.236:  -4302  89  11  680
1477472648.238:  -3998  89  11  680
1477472648.239:  -3598  89  11  680
1477472648.241:  -3255  89  11  680
1477472648.244:  -3061  89  11  680
1477472648.247:  -2987  89  11  680
1477472648.249:  -2949  89  11  680
1477472648.249:  -2902  89  11  680
1477472648.251:  -2857  89  11  680
1477472648.254:  -2838  89  11  680
1477472648.257:  -2820  89  11  680
1477472648.258:  -2755  89  11  680
1477472648.260:  -2615  89  11  680
1477472648.261:  -2424  89  11  680
1477472648.261:  -2245  89  11  680
1477472648.271:  -2125  89  11  680
1477472648.279:  -2058  89  11  680
1477472648.279:  -1991  89  11  680
1477472648.284:  -1876  89  11  680
1477472648.285:  -1719  89  11  680
1477472648.294:  -1580  89  11  680
1477472648.294:  -1499  89  11  680
1477472648.300:  -1465  89  11  680
1477472648.300:  -1421  89  11  680
1477472648.307:  -1334  89  11  680
1477472648.307:  -1242  89  11  680
1477472648.318:  -1223  89  11  680
1477472648.318:  -1310  89  11  680
1477472648.318:  -1460  89  11  680
1477472648.318:  -1604  89  11  680
1477472648.318:  -1699  89  11  680
1477472648.318:  -1743  89  11  680
1477472648.318:  -1747  89  11  680
1477472648.319:  -1707  89  11  680
1477472648.319:  -1623  89  11  680
1477472648.319:  -1516  89  11  680
1477472648.319:  -1432  89  11  680
1477472648.319:  -1382  89  11  680
1477472648.326:  -1331  89  11  680
1477472648.327:  -1237  89  11  680
1477472648.330:  -1112  89  11  680
1477472648.330:  -1015  89  11  680
1477472648.331:   -993  89  11  680
1477472648.331:  -1021  89  11  680
1477472648.332:  -1015  89  11  680
1477472648.333:   -914  89  11  680
1477472648.333:   -749  89  11  680
1477472648.335:   -605  89  11  680
1477472648.335:   -527  89  11  680
1477472648.336:   -484  89  11  680
1477472648.338:   -413  89  11  680
1477472648.338:   -281  89  11  680
1477472648.341:   -115  89  11  680
1477472648.341:     41  89  11  680
1477472648.346:    168  89  11  680
1477472648.347:    275  89  11  680
1477472648.348:    380  89  11  680
1477472648.350:    497  89  11  680
1477472648.351:    634  89  11  680
1477472648.362:    784  89  11  680
1477472648.373:    923  89  11  680
1477472648.373:   1018  89  11  680
1477472648.374:   1062  89  11  680
1477472648.374:   1079  89  11  680
1477472648.374:   1108  89  11  680
1477472648.389:   1178  89  11  680
1477472648.393:   1275  89  11  680
1477472648.393:   1366  89  11  680
1477472648.393:   1444  89  11  680
1477472648.397:   1538  89  11  680
1477472648.400:   1679  89  11  680
1477472648.400:   1858  89  11  680
1477472648.409:   2016  89  11  680
1477472648.409:   2096  89  11  680
1477472648.411:   2097  72   9  680
1477472648.415:   2074  72   9  680
1477472648.417:   2074  72   9  680
1477472648.417:   2084  72   9  680
1477472648.418:   2070  72   9  680
1477472648.418:   2031  72   9  680
1477472648.418:   2000  72   9  680
1477472648.419:   1994  72   9  680
1477472648.419:   1996  72   9  680
1477472648.419:   1986  72   9  680
1477472648.420:   1998  72   9  680
1477472648.420:   2084  72   9  680
1477472648.420:   2232  72   9  680
1477472648.421:   2346  72   9  680
1477472648.421:   2358  72   9  680
1477472648.421:   2313  72   9  680
1477472648.422:   2320  72   9  680
1477472648.422:   2418  72   9  680
1477472648.424:   2538  72   9  680
1477472648.424:   2585  72   9  680
1477472648.439:   2547  72   9  680
1477472648.439:   2489  72   9  680
1477472648.439:   2470  72   9  680
1477472648.439:   2489  72   9  680
1477472648.439:   2533  72   9  680
1477472648.440:   2606  72   9  680
1477472648.440:   2692  72   9  680
1477472648.440:   2742  72   9  680
1477472648.440:   2721  72   9  680
1477472648.440:   2653  72   9  680
1477472648.444:   2595  72   9  680
1477472648.445:   2561  72   9  680
1477472648.445:   2519  72   9  680
1477472648.446:   2450  72   9  680
1477472648.447:   2404  72   9  680
1477472648.451:   2443  72   9  680
1477472648.452:   2556  72   9  680
1477472648.456:   2659  72   9  680
1477472648.456:   2706  72   9  680
1477472648.456:   2727  72   9  680
1477472648.456:   2764  72   9  680
1477472648.459:   2794  72   9  680
1477472648.471:   2751  72   9  680
1477472648.471:   2605  72   9  680
1477472648.472:   2398  72   9  680
1477472648.472:   2191  72   9  680
1477472648.472:   2007  72   9  680
1477472648.475:   1841  72   9  680
1477472648.476:   1710  72   9  680
1477472648.477:   1641  72   9  680
1477472648.479:   1627  72   9  680
1477472648.486:   1616  72   9  680
1477472648.489:   1570  72   9  680
1477472648.490:   1501  72   9  680
1477472648.490:   1452  72   9  680
1477472648.490:   1431  72   9  680
1477472648.491:   1399  72   9  680
1477472648.492:   1307  72   9  680
1477472648.497:   1160  72   9  680
1477472648.497:   1021  72   9  680
1477472648.500:    932  72   9  680
1477472648.501:    885  72   9  680
1477472648.502:    836  72   9  680
1477472648.503:    756  72   9  680
1477472648.510:    660  72   9  680
1477472648.512:    585  72   9  680
1477472648.512:    535  72   9  680
1477472648.513:    475  72   9  680
1477472648.515:    363  72   9  680
1477472648.516:    194  72   9  680
1477472648.520:    -13  72   9  680
1477472648.521:   -235  72   9  680
1477472648.533:   -460  72   9  680
1477472648.533:   -668  72   9  680
1477472648.534:   -844  72   9  680
1477472648.535:   -981  72   9  680
1477472648.535:  -1092  72   9  680
1477472648.535:  -1191  72   9  680
1477472648.535:  -1274  72   9  680
1477472648.536:  -1312  72   9  680
1477472648.536:  -1307  72   9  680
1477472648.538:  -1312  72   9  680
1477472648.539:  -1378  72   9  680
1477472648.540:  -1501  72   9  680
1477472648.542:  -1621  72   9  680
1477472648.543:  -1684  72   9  680
1477472648.553:  -1698  72   9  680
1477472648.553:  -1715  72   9  680
1477472648.553:  -1761  72   9  680
1477472648.558:  -1797  72   9  680
1477472648.558:  -1764  72   9  680
1477472648.559:  -1667  72   9  680
1477472648.561:  -1565  72   9  680
1477472648.563:  -1517  72   9  680
1477472648.563:  -1525  72   9  680
1477472648.565:  -1544  72   9  680
1477472648.566:  -1545  72   9  680
1477472648.567:  -1540  72   9  680
1477472648.570:  -1562  72   9  680
1477472648.571:  -1608  72   9  680
1477472648.576:  -1642  72   9  680
1477472648.577:  -1645  72   9  680
1477472648.577:  -1636  72   9  680
1477472648.588:  -1644  72   9  680
1477472648.593:  -1671  72   9  680
1477472648.594:  -1684  72   9  680
1477472648.594:  -1652  72   9  680
1477472648.594:  -1595  72   9  680
1477472648.595:  -1581  72   9  680
1477472648.595:  -1649  72   9  680
1477472648.595:  -1773  72   9  680
1477472648.596:  -1881  72   9  680
1477472648.596:  -1932  72   9  680
1477472648.606:  -1956  72   9  680
1477472648.616:  -2018  72   9  680
1477472648.616:  -2143  72   9  680
1477472648.617:  -2282  72   9  680
1477472648.617:  -2362  72   9  680
1477472648.617:  -2369  72   9  680
1477472648.617:  -2355  72   9  680
1477472648.617:  -2367  72   9  680
1477472648.618:  -2399  72   9  680
1477472648.618:  -2402  72   9  680
1477472648.628:  -2353  72   9  680
1477472648.628:  -2284  72   9  680
1477472648.629:  -2251  72   9  680
1477472648.629:  -2261  72   9  680
1477472648.630:  -2268  72   9  680
1477472648.642:  -2228  72   9  680
1477472648.643:  -2155  72   9  680
1477472648.643:  -2106  72   9  680
1477472648.643:  -2119  72   9  680
1477472648.643:  -2172  72   9  680
1477472648.643:  -2206  72   9  680
1477472648.643:  -2193  72   9  680
1477472648.644:  -2169  72   9  680
1477472648.645:  -2180  72   9  680
1477472648.648:  -2224  72   9  680
1477472648.648:  -2266  72   9  680
1477472648.649:  -2278  72   9  680
1477472648.651:  -2270  72   9  680
1477472648.657:  -2272  72   9  680
1477472648.658:  -2290  72   9  680
1477472648.668:  -2303  72   9  680
1477472648.676:  -2290  72   9  680
1477472648.677:  -2275  72   9  680
1477472648.677:  -2290  72   9  680
1477472648.677:  -2329  72   9  680
1477472648.677:  -2344  72   9  680
1477472648.677:  -2302  72   9  680
1477472648.677:  -2219  72   9  680
1477472648.677:  -2152  72   9  680
1477472648.678:  -2138  72   9  680
1477472648.680:  -2150  72   9  680
1477472648.680:  -2131  72   9  680
1477472648.682:  -2062  72   9  680
1477472648.683:  -1978  72   9  680
1477472648.684:  -1922  72   9  680
1477472648.689:  -1897  72   9  680
1477472648.689:  -1868  72   9  680
1477472648.701:  -1807  72   9  680
1477472648.701:  -1713  72   9  680
1477472648.701:  -1607  72   9  680
1477472648.701:  -1499  72   9  680
1477472648.720:  -1381  72   9  680
1477472648.780:  -1247  72   9  680
1477472648.781:  -1108  72   9  680
1477472648.781:   -975  72   9  680
1477472648.781:   -847  72   9  680
1477472648.781:   -720  72   9  680
1477472648.781:   -598  72   9  680
1477472648.782:   -493  72   9  680
1477472648.782:   -410  72   9  680
1477472648.782:   -343  72   9  680
1477472648.782:   -285  72   9  680
1477472648.783:   -238  72   9  680
1477472648.783:   -211  72   9  680
1477472648.783:   -200  72   9  680
