timestamp: ADC HeartRate4sAverage HeartRate30sAverage HRV8sAverage
1477467703.037:  -2189  79  10  751
1477467703.037:  -1345  79  10  751
1477467703.043:   -671  79  10  751
1477467703.043:   -234  79  10  751
1477467703.043:     35  79  10  751
1477467703.043:    246  79  10  751
1477467703.043:    451  79  10  751
1477467703.044:    616  79  10  751
1477467703.044:    685  79  10  751
1477467703.044:    664  79  10  751
1477467703.044:    615  79  10  751
1477467703.044:    604  79  10  751
1477467703.044:    652  79  10  751
1477467703.044:    737  79  10  751
1477467703.044:    826  79  10  751
1477467703.045:    891  79  10  751
1477467703.045:    912  79  10  751
1477467703.045:    892  79  10  751
1477467703.045:    846  79  10  751
1477467703.045:    803  79  10  751
1477467703.045:    779  79  10  751
1477467703.049:    771  79  10  751
1477467703.049:    769  79  10  751
1477467703.052:    773  79  10  751
1477467703.053:    787  79  10  751
1477467703.054:    801  79  10  751
1477467703.063:    801  79  10  751
1477467703.063:    790  79  10  751
1477467703.064:    779  79  10  751
1477467703.064:    777  79  10  751
1477467703.065:    773  79  10  751
1477467703.066:    758  79  10  751
1477467703.069:    733  79  10  751
1477467703.073:    715  79  10  751
1477467703.082:    714  79  10  751
1477467703.082:    719  79  10  751
1477467703.082:    717  79  10  751
1477467703.082:    705  79  10  751
1477467703.082:    696  79  10  751
1477467703.083:    699  79  10  751
1477467703.087:    708  79  10  751
1477467703.087:    712  79  10  751
1477467703.088:    700  79  10  751
1477467703.089:    673  79  10  751
1477467703.092:    643  79  10  751
1477467703.093:    618  79  10  751
1477467703.101:    606  79  10  751
1477467703.101:    603  79  10  751
1477467703.102:    597  79  10  751
1477467703.103:    580  79  10  751
1477467703.103:    547  79  10  751
1477467703.106:    508  79  10  751
1477467703.107:    476  79  10  751
1477467703.111:    461  79  10  751
1477467703.120:    456  79  10  751
1477467703.121:    451  79  10  751
1477467703.121:    441  79  10  751
1477467703.121:    431  79  10  751
1477467703.121:    434  79  10  751
1477467703.122:    452  79  10  751
1477467703.124:    473  79  10  751
1477467703.128:    479  79  10  751
1477467703.128:    465  79  10  751
1477467703.129:    443  79  10  751
1477467703.131:    427  79  10  751
1477467703.133:    418  79  10  751
1477467703.145:    402  79  10  751
1477467703.145:    379  79  10  751
1477467703.145:    369  79  10  751
1477467703.145:    396  79  10  751
1477467703.145:    459  79  10  751
1477467703.146:    526  79  10  751
1477467703.147:    569  79  10  751
1477467703.149:    581  79  10  751
1477467703.151:    576  79  10  751
1477467703.155:    557  79  10  751
1477467703.165:    524  79  10  751
1477467703.165:    485  79  10  751
1477467703.165:    457  79  10  751
1477467703.165:    450  79  10  751
1477467703.165:    438  79  10  751
1477467703.165:    400  80  10  748
1477467703.167:    353  80  10  748
1477467703.168:    345  80  10  748
1477467703.171:    400  80  10  748
1477467703.173:    478  80  10  748
1477467703.207:    513  80  10  748
1477467703.208:    476  80  10  748
1477467703.208:    410  80  10  748
1477467703.208:    370  80  10  748
1477467703.208:    361  80  10  748
1477467703.209:    337  80  10  748
1477467703.209:    268  80  10  748
1477467703.211:    176  80  10  748
1477467703.212:    109  80  10  748
1477467703.215:     95  80  10  748
1477467703.215:    118  80  10  748
1477467703.215:    140  80  10  748
1477467703.215:    142  80  10  748
1477467703.216:    132  80  10  748
1477467703.216:    126  80  10  748
1477467703.216:    129  80  10  748
1477467703.216:    135  80  10  748
1477467703.216:    131  80  10  748
1477467703.217:    111  80  10  748
1477467703.217:     82  80  10  748
1477467703.218:     54  80  10  748
1477467703.220:     33  80  10  748
1477467703.229:     13  80  10  748
1477467703.229:    -16  80  10  748
1477467703.230:    -52  80  10  748
1477467703.230:    -82  80  10  748
1477467703.230:   -100  80  10  748
1477467703.230:   -115  80  10  748
1477467703.231:   -140  80  10  748
1477467703.232:   -177  80  10  748
1477467703.233:   -213  80  10  748
1477467703.236:   -233  80  10  748
1477467703.237:   -243  80  10  748
1477467703.241:   -258  80  10  748
1477467703.246:   -289  80  10  748
1477467703.246:   -329  80  10  748
1477467703.247:   -365  80  10  748
1477467703.247:   -393  80  10  748
1477467703.251:   -412  80  10  748
1477467703.252:   -422  80  10  748
1477467703.253:   -418  80  10  748
1477467703.256:   -402  80  10  748
1477467703.264:   -391  80  10  748
1477467703.265:   -401  80  10  748
1477467703.265:   -431  80  10  748
1477467703.266:   -458  80  10  748
1477467703.266:   -470  80  10  748
1477467703.267:   -473  80  10  748
1477467703.269:   -478  80  10  748
1477467703.271:   -488  80  10  748
1477467703.280:   -492  80  10  748
1477467703.281:   -482  80  10  748
1477467703.281:   -465  80  10  748
1477467703.281:   -452  80  10  748
1477467703.282:   -436  80  10  748
1477467703.284:   -401  80  10  748
1477467703.285:   -339  80  10  748
1477467703.287:   -271  80  10  748
1477467703.288:   -225  80  10  748
1477467703.292:   -209  80  10  748
1477467703.298:   -203  80  10  748
1477467703.298:   -190  80  10  748
1477467703.299:   -165  80  10  748
1477467703.299:   -139  80  10  748
1477467703.301:   -117  80  10  748
1477467703.302:    -95  80  10  748
1477467703.306:    -74  80  10  748
1477467703.306:    -55  80  10  748
1477467703.315:    -37  80  10  748
1477467703.316:     -8  80  10  748
1477467703.316:     37  80  10  748
1477467703.316:     84  80  10  748
1477467703.316:    107  80  10  748
1477467703.320:    102  80  10  748
1477467703.320:     88  80  10  748
1477467703.322:     87  80  10  748
1477467703.325:     97  80  10  748
1477467703.329:    104  80  10  748
1477467703.334:     97  80  10  748
1477467703.335:     89  80  10  748
1477467703.335:    100  80  10  748
1477467703.335:    133  80  10  748
1477467703.336:    174  80  10  748
1477467703.337:    200  80  10  748
1477467703.340:    201  80  10  748
1477467703.342:    189  80  10  748
1477467703.344:    186  80  10  748
1477467703.347:    211  80  10  748
1477467703.354:    263  80  10  748
1477467703.354:    315  80  10  748
1477467703.354:    334  80  10  748
1477467703.354:    315  80  10  748
1477467703.356:    291  80  10  748
1477467703.357:    302  80  10  748
1477467703.361:    349  80  10  748
1477467703.361:    392  80  10  748
1477467703.363:    384  80  10  748
1477467703.364:    321  80  10  748
1477467703.367:    243  80  10  748
1477467703.369:    197  80  10  748
1477467703.379:    194  80  10  748
1477467703.379:    210  80  10  748
1477467703.379:    220  80  10  748
1477467703.379:    221  80  10  748
1477467703.379:    224  80  10  748
1477467703.381:    238  80  10  748
1477467703.383:    260  80  10  748
1477467703.384:    284  80  10  748
1477467703.389:    304  80  10  748
1477467703.389:    316  80  10  748
1477467703.399:    314  80  10  748
1477467703.399:    296  80  10  748
1477467703.400:    270  80  10  748
1477467703.400:    248  80  10  748
1477467703.400:    235  80  10  748
1477467703.403:    229  80  10  748
1477467703.403:    229  80  10  748
1477467703.404:    240  80  10  748
1477467703.407:    261  80  10  748
1477467703.408:    276  80  10  748
1477467703.411:    262  80  10  748
1477467703.412:    221  80  10  748
1477467703.419:    189  80  10  748
1477467703.420:    203  80  10  748
1477467703.420:    257  80  10  748
1477467703.420:    297  80  10  748
1477467703.422:    281  80  10  748
1477467703.448:    224  80  10  748
1477467703.461:    183  80  10  748
1477467703.461:    192  80  10  748
1477467703.461:    224  80  10  748
1477467703.461:    230  80  10  748
1477467703.461:    194  80  10  748
1477467703.462:    156  80  10  748
1477467703.462:    165  80  10  748
1477467703.462:    221  80  10  748
1477467703.462:    281  80  10  748
1477467703.462:    300  80  10  748
1477467703.463:    281  80  10  748
1477467703.463:    259  80  10  748
1477467703.463:    261  80  10  748
1477467703.464:    281  80  10  748
1477467703.464:    285  80  10  748
1477467703.464:    253  80  10  748
1477467703.464:    196  80  10  748
1477467703.464:    149  80  10  748
1477467703.464:    134  80  10  748
1477467703.466:    142  80  10  748
1477467703.514:    145  80  10  748
1477467703.514:    125  80  10  748
1477467703.515:     93  80  10  748
1477467703.515:     73  80  10  748
1477467703.515:     81  80  10  748
1477467703.515:    108  80  10  748
1477467703.515:    133  80  10  748
1477467703.515:    136  80  10  748
1477467703.515:    115  80  10  748
1477467703.515:     84  80  10  748
1477467703.516:     61  80  10  748
1477467703.516:     53  80  10  748
1477467703.516:     56  80  10  748
1477467703.516:     57  80  10  748
1477467703.516:     53  80  10  748
1477467703.516:     50  80  10  748
1477467703.516:     57  80  10  748
1477467703.517:     69  80  10  748
1477467703.517:     79  80  10  748
1477467703.517:     85  80  10  748
1477467703.517:     93  80  10  748
1477467703.517:    107  80  10  748
1477467703.517:    122  80  10  748
1477467703.518:    121  80  10  748
1477467703.518:     95  80  10  748
1477467703.518:     57  80  10  748
1477467703.518:     36  80  10  748
1477467703.519:     44  80  10  748
1477467703.521:     65  80  10  748
1477467703.522:     64  80  10  748
1477467703.532:     21  80  10  748
1477467703.532:    -49  80  10  748
1477467703.532:   -102  80  10  748
1477467703.532:   -107  80  10  748
1477467703.533:    -69  80  10  748
1477467703.534:    -27  80  10  748
1477467703.536:     -7  80  10  748
1477467703.540:     -5  80  10  748
1477467703.550:      3  80  10  748
1477467703.550:     31  80  10  748
1477467703.551:     68  80  10  748
1477467703.551:     97  80  10  748
1477467703.551:    116  80  10  748
1477467703.554:    133  80  10  748
1477467703.554:    156  80  10  748
1477467703.554:    173  80  10  748
1477467703.556:    168  80  10  748
1477467703.557:    137  80  10  748
1477467703.560:     93  80  10  748
1477467703.562:     55  80  10  748
1477467703.571:     40  80  10  748
1477467703.571:     40  80  10  748
1477467703.571:     38  80  10  748
1477467703.571:     17  80  10  748
1477467703.572:    -22  80  10  748
1477467703.573:    -63  80  10  748
1477467703.576:    -84  80  10  748
1477467703.577:    -81  80  10  748
1477467703.581:    -76  80  10  748
1477467703.581:    -91  80  10  748
1477467703.583:   -127  80  10  748
1477467703.586:   -165  80  10  748
1477467703.594:   -182  80  10  748
1477467703.594:   -178  80  10  748
1477467703.594:   -167  80  10  748
1477467703.595:   -167  80  10  748
1477467703.596:   -172  80  10  748
1477467703.597:   -170  80  10  748
1477467703.598:   -157  80  10  748
1477467703.601:   -142  80  10  748
1477467703.603:   -142  80  10  748
1477467703.604:   -161  80  10  748
1477467703.611:   -186  80  10  748
1477467703.612:   -196  80  10  748
1477467703.613:   -177  80  10  748
1477467703.613:   -133  80  10  748
1477467703.614:    -85  80  10  748
1477467703.617:    -62  80  10  748
1477467703.618:    -71  80  10  748
1477467703.623:    -89  80  10  748
1477467703.623:    -69  80  10  748
1477467703.625:      6  80  10  748
1477467703.627:    103  80  10  748
1477467703.628:    163  80  10  748
1477467703.631:    161  80  10  748
1477467703.632:    134  80  10  748
1477467703.641:    137  80  10  748
1477467703.641:    186  80  10  748
1477467703.641:    245  80  10  748
1477467703.641:    267  80  10  748
1477467703.642:    250  80  10  748
1477467703.644:    222  80  10  748
1477467703.646:    208  80  10  748
1477467703.648:    205  80  10  748
1477467703.652:    202  80  10  748
1477467703.653:    205  80  10  748
1477467703.662:    218  80  10  748
1477467703.662:    229  80  10  748
1477467703.662:    222  80  10  748
1477467703.662:    201  80  10  748
1477467703.664:    190  80  10  748
1477467703.664:    199  80  10  748
1477467703.665:    208  80  10  748
1477467703.667:    198  80  10  748
1477467703.669:    173  80  10  748
1477467703.672:    163  80  10  748
1477467703.681:    179  80  10  748
1477467703.681:    202  80  10  748
1477467703.681:    212  80  10  748
1477467703.682:    214  80  10  748
1477467703.682:    226  80  10  748
1477467703.683:    249  80  10  748
1477467703.686:    258  80  10  748
1477467703.687:    236  80  10  748
1477467703.692:    194  80  10  748
1477467703.692:    160  80  10  748
1477467703.698:    144  80  10  748
1477467703.699:    126  80  10  748
1477467703.699:     87  80  10  748
1477467703.700:     34  80  10  748
1477467703.701:    -13  80  10  748
1477467703.705:    -40  80  10  748
1477467703.705:    -50  80  10  748
1477467703.707:    -45  80  10  748
1477467703.718:     -8  80  10  748
1477467703.718:     84  80  10  748
1477467703.718:    231  80  10  748
1477467703.719:    392  80  10  748
1477467703.719:    500  80  10  748
1477467703.721:    513  80  10  748
1477467703.722:    438  80  10  748
1477467703.723:    299  80  10  748
1477467703.726:     83  80  10  748
1477467703.726:   -269  80  10  748
1477467703.728:   -816  80  10  748
1477467703.732:  -1548  80  10  748
1477467703.740:  -2383  80  10  748
1477467703.741:  -3226  80  10  748
1477467703.741:  -4025  80  10  748
1477467703.741:  -4749  80  10  748
1477467703.741:  -5334  80  10  748
1477467703.742:  -5673  80  10  748
1477467703.746:  -5691  80  10  748
1477467703.747:  -5416  80  10  748
1477467703.748:  -4956  80  10  748
1477467703.749:  -4396  80  10  748
1477467703.762:  -3732  80  10  748
1477467703.762:  -2928  80  10  748
1477467703.762:  -2021  80  10  748
1477467703.762:  -1162  80  10  748
1477467703.762:   -514  80  10  748
1477467703.763:   -120  80  10  748
1477467703.764:    113  80  10  748
1477467703.766:    311  80  10  748
1477467703.768:    514  80  10  748
1477467703.769:    667  80  10  748
1477467703.774:    717  80  10  748
1477467703.774:    681  80  10  748
1477467703.781:    636  80  10  748
1477467703.781:    644  80  10  748
1477467703.781:    710  80  10  748
1477467703.782:    799  80  10  748
1477467703.783:    877  80  10  748
1477467703.788:    932  80  10  748
1477467703.788:    962  80  10  748
1477467703.789:    971  80  10  748
1477467703.800:    965  80  10  748
1477467703.800:    951  80  10  748
1477467703.800:    934  80  10  748
1477467703.802:    916  80  10  748
1477467703.802:    905  80  10  748
1477467703.802:    905  80  10  748
1477467703.803:    906  80  10  748
1477467703.805:    889  80  10  748
1477467703.807:    849  80  10  748
1477467703.809:    803  80  10  748
1477467703.820:    779  80  10  748
1477467703.820:    780  80  10  748
1477467703.820:    783  80  10  748
1477467703.821:    776  80  10  748
1477467703.821:    777  80  10  748
1477467703.822:    809  80  10  748
1477467703.823:    857  80  10  748
1477467703.825:    875  80  10  748
1477467703.829:    837  80  10  748
1477467703.829:    777  80  10  748
1477467703.831:    752  80  10  748
1477467703.832:    779  80  10  748
1477467703.835:    812  80  10  748
1477467703.837:    799  80  10  748
1477467703.844:    740  80  10  748
1477467703.844:    687  80  10  748
1477467703.844:    679  80  10  748
1477467703.846:    698  80  10  748
1477467703.846:    699  80  10  748
1477467703.848:    663  80  10  748
1477467703.850:    620  80  10  748
1477467703.852:    605  80  10  748
1477467703.862:    619  80  10  748
1477467703.863:    634  80  10  748
1477467703.863:    626  80  10  748
1477467703.863:    603  80  10  748
1477467703.863:    585  80  10  748
1477467703.864:    581  80  10  748
1477467703.866:    579  80  10  748
1477467703.870:    569  80  10  748
1477467703.881:    551  80  10  748
1477467703.881:    531  80  10  748
1477467703.881:    512  80  10  748
1477467703.881:    493  80  10  748
1477467703.881:    480  80  10  748
1477467703.884:    483  80  10  748
1477467703.885:    498  80  10  748
1477467703.885:    506  80  10  748
1477467703.885:    493  80  10  748
1477467703.887:    465  80  10  748
1477467703.890:    445  80  10  748
1477467703.892:    442  80  10  748
1477467703.900:    443  80  10  748
1477467703.901:    430  80  10  748
1477467703.902:    406  80  10  748
1477467703.902:    388  80  10  748
1477467703.902:    385  80  10  748
1477467703.904:    382  80  10  748
1477467703.906:    363  80  10  748
1477467703.907:    332  80  10  748
1477467703.918:    311  80  10  748
1477467703.918:    312  80  10  748
1477467703.918:    324  80  10  748
1477467703.918:    322  80  10  748
1477467703.918:    295  80  10  750
1477467703.919:    252  80  10  750
1477467703.921:    215  80  10  750
1477467703.925:    195  80  10  750
1477467703.926:    196  80  10  750
1477467703.927:    209  80  10  750
1477467703.939:    218  80  10  750
1477467703.939:    212  80  10  750
1477467703.940:    193  80  10  750
1477467703.940:    176  80  10  750
1477467703.940:    176  80  10  750
1477467703.940:    202  80  10  750
1477467703.941:    245  80  10  750
1477467703.942:    284  80  10  750
1477467703.945:    299  80  10  750
1477467703.946:    282  80  10  750
1477467703.952:    244  80  10  750
1477467703.953:    211  80  10  750
1477467703.962:    207  80  10  750
1477467703.962:    232  80  10  750
1477467703.962:    254  80  10  750
1477467703.962:    242  80  10  750
1477467703.962:    192  80  10  750
1477467703.962:    129  80  10  750
1477467703.969:     83  80  10  750
1477467703.969:     62  80  10  750
1477467703.969:     50  80  10  750
1477467703.971:     30  80  10  750
1477467703.985:     -5  80  10  750
1477467703.985:    -48  80  10  750
1477467703.985:    -90  80  10  750
1477467703.985:   -124  80  10  750
1477467703.986:   -149  80  10  750
1477467703.986:   -170  80  10  750
1477467703.986:   -194  80  10  750
1477467703.986:   -231  80  10  750
1477467703.988:   -284  80  10  750
1477467703.989:   -351  80  10  750
1477467703.994:   -417  80  10  750
1477467703.994:   -459  80  10  750
1477467704.006:   -465  80  10  750
1477467704.007:   -445  80  10  750
1477467704.007:   -426  80  10  750
1477467704.007:   -427  80  10  750
1477467704.007:   -438  80  10  750
1477467704.007:   -437  80  10  750
1477467704.008:   -417  80  10  750
1477467704.009:   -401  80  10  750
1477467704.012:   -413  80  10  750
1477467704.013:   -451  80  10  750
1477467704.015:   -485  80  10  750
1477467704.017:   -494  80  10  750
1477467704.021:   -486  80  10  750
1477467704.021:   -479  80  10  750
1477467704.028:   -480  80  10  750
1477467704.029:   -475  80  10  750
1477467704.029:   -451  80  10  750
1477467704.030:   -414  80  10  750
1477467704.030:   -380  80  10  750
1477467704.035:   -353  80  10  750
1477467704.046:   -326  80  10  750
1477467704.046:   -295  80  10  750
1477467704.046:   -264  80  10  750
1477467704.047:   -242  80  10  750
1477467704.047:   -230  80  10  750
1477467704.049:   -219  80  10  750
1477467704.049:   -198  80  10  750
1477467704.049:   -157  80  10  750
1477467704.051:   -101  80  10  750
1477467704.052:    -46  80  10  750
1477467704.054:    -15  80  10  750
1477467704.057:     -8  80  10  750
1477467704.063:     -7  80  10  750
1477467704.064:     15  80  10  750
1477467704.064:     58  80  10  750
1477467704.064:     90  80  10  750
1477467704.067:     86  80  10  750
1477467704.068:     57  80  10  750
1477467704.071:     40  80  10  750
1477467704.072:     63  80  10  750
1477467704.082:    114  80  10  750
1477467704.082:    156  80  10  750
1477467704.082:    169  80  10  750
1477467704.082:    165  80  10  750
1477467704.082:    164  80  10  750
1477467704.085:    171  80  10  750
1477467704.086:    179  80  10  750
1477467704.090:    178  80  10  750
1477467704.099:    171  80  10  750
1477467704.099:    160  80  10  750
1477467704.100:    144  80  10  750
1477467704.100:    129  80  10  750
1477467704.101:    125  80  10  750
1477467704.102:    135  80  10  750
1477467704.104:    142  80  10  750
1477467704.104:    126  80  10  750
1477467704.106:     90  80  10  750
1477467704.108:     61  80  10  750
1477467704.117:     59  80  10  750
1477467704.117:     78  80  10  750
1477467704.117:     91  80  10  750
1477467704.117:     86  80  10  750
1477467704.117:     75  80  10  750
1477467704.119:     74  80  10  750
1477467704.121:     88  80  10  750
1477467704.123:    113  80  10  750
1477467704.125:    148  80  10  750
1477467704.127:    196  80  10  750
1477467704.142:    247  80  10  750
1477467704.143:    287  80  10  750
1477467704.143:    316  80  10  750
1477467704.143:    344  80  10  750
1477467704.143:    376  80  10  750
1477467704.143:    397  80  10  750
1477467704.143:    384  80  10  750
1477467704.145:    344  80  10  750
1477467704.145:    306  80  10  750
1477467704.147:    296  80  10  750
1477467704.149:    300  80  10  750
1477467704.151:    291  80  10  750
1477467704.153:    264  80  10  750
1477467704.154:    247  80  10  750
1477467704.164:    271  80  10  750
1477467704.164:    323  80  10  750
1477467704.164:    366  80  10  750
1477467704.164:    368  80  10  750
1477467704.165:    344  80  10  750
1477467704.169:    333  80  10  750
1477467704.169:    356  80  10  750
1477467704.173:    394  80  10  750
1477467704.173:    415  80  10  750
1477467704.175:    403  80  10  750
1477467704.186:    374  80  10  750
1477467704.186:    355  80  10  750
1477467704.215:    355  80  10  750
1477467704.215:    364  80  10  750
1477467704.215:    364  80  10  750
1477467704.215:    352  80  10  750
1477467704.216:    333  80  10  750
1477467704.217:    310  80  10  750
1477467704.259:    284  80  10  750
1477467704.386:    260  80  10  750
1477467704.386:    243  80  10  750
1477467704.386:    237  80  10  750
1477467704.387:    238  80  10  750
1477467704.387:    235  80  10  750
1477467704.387:    227  80  10  750
1477467704.388:    223  80  10  750
1477467704.388:    226  80  10  750
1477467704.388:    226  80  10  750
1477467704.388:    221  80  10  750
1477467704.388:    216  80  10  750
1477467704.388:    219  80  10  750
1477467704.389:    220  80  10  750
1477467704.389:    202  80  10  750
1477467704.389:    167  80  10  750
1477467704.389:    144  80  10  750
1477467704.389:    151  80  10  750
1477467704.389:    173  80  10  750
1477467704.389:    171  80  10  750
1477467704.389:    133  80  10  750
1477467704.390:     91  80  10  750
1477467704.390:     89  80  10  750
1477467704.390:    124  80  10  750
1477467704.390:    157  80  10  750
1477467704.390:    155  80  10  750
1477467704.391:    128  80  10  750
1477467704.391:    111  80  10  750
1477467704.391:    117  80  10  750
1477467704.392:    128  80  10  750
1477467704.392:    122  80  10  750
1477467704.392:    105  80  10  750
1477467704.393:     96  80  10  750
1477467704.393:    101  80  10  750
1477467704.393:    108  80  10  750
1477467704.393:    103  80  10  750
1477467704.393:     92  80  10  750
1477467704.393:     87  80  10  750
1477467704.393:     90  80  10  750
1477467704.394:     83  80  10  750
1477467704.394:     61  80  10  750
1477467704.394:     39  80  10  750
1477467704.394:     36  80  10  750
1477467704.394:     57  80  10  750
1477467704.395:     79  80  10  750
1477467704.395:     83  80  10  750
1477467704.395:     73  80  10  750
1477467704.395:     66  80  10  750
1477467704.395:     76  80  10  750
1477467704.395:     94  80  10  750
1477467704.396:     99  80  10  750
1477467704.396:     82  80  10  750
1477467704.396:     48  80  10  750
1477467704.396:      6  80  10  750
1477467704.396:    -36  80  10  750
1477467704.396:    -77  80  10  750
1477467704.397:   -109  80  10  750
1477467704.397:   -132  80  10  750
1477467704.397:   -150  80  10  750
1477467704.397:   -172  80  10  750
1477467704.397:   -196  80  10  750
1477467704.398:   -214  80  10  750
1477467704.398:   -219  80  10  750
1477467704.398:   -210  80  10  750
1477467704.398:   -195  80  10  750
1477467704.398:   -181  80  10  750
1477467704.398:   -179  80  10  750
1477467704.398:   -199  80  10  750
1477467704.399:   -237  80  10  750
1477467704.399:   -271  80  10  750
1477467704.399:   -278  80  10  750
1477467704.399:   -255  80  10  750
1477467704.399:   -223  80  10  750
1477467704.399:   -206  80  10  750
1477467704.399:   -203  80  10  750
1477467704.399:   -194  80  10  750
1477467704.400:   -161  80  10  750
1477467704.400:   -113  80  10  750
1477467704.400:    -74  80  10  750
1477467704.401:    -56  80  10  750
1477467704.401:    -59  80  10  750
1477467704.401:    -71  80  10  750
1477467704.401:    -84  80  10  750
1477467704.401:    -94  80  10  750
1477467704.401:   -104  80  10  750
1477467704.401:   -117  80  10  750
1477467704.401:   -134  80  10  750
1477467704.402:   -146  80  10  750
1477467704.402:   -139  80  10  750
1477467704.402:   -111  80  10  750
1477467704.402:    -76  80  10  750
1477467704.402:    -48  80  10  750
1477467704.402:    -24  80  10  750
1477467704.403:     19  80  10  750
1477467704.403:     88  80  10  750
1477467704.403:    159  80  10  750
1477467704.419:    197  80  10  750
1477467704.419:    193  80  10  750
1477467704.419:    178  80  10  750
1477467704.419:    184  80  10  750
1477467704.420:    211  80  10  750
1477467704.420:    232  80  10  750
1477467704.420:    237  80  10  750
1477467704.420:    245  80  10  750
1477467704.420:    278  80  10  750
1477467704.421:    328  80  10  750
1477467704.421:    361  80  10  750
1477467704.421:    362  80  10  750
1477467704.421:    346  80  10  750
1477467704.421:    338  80  10  750
1477467704.422:    340  80  10  750
1477467704.422:    331  80  10  750
1477467704.422:    299  80  10  750
1477467704.422:    253  80  10  750
1477467704.422:    211  80  10  750
1477467704.422:    184  80  10  750
1477467704.423:    172  80  10  750
1477467704.423:    171  80  10  750
1477467704.424:    181  80  10  750
1477467704.426:    195  80  10  750
1477467704.428:    198  80  10  750
1477467704.430:    191  80  10  750
1477467704.450:    186  80  10  750
1477467704.451:    187  80  10  750
1477467704.451:    187  80  10  750
1477467704.451:    172  80  10  750
1477467704.451:    144  80  10  750
1477467704.451:    116  80  10  750
1477467704.452:     93  80  10  750
1477467704.452:     73  80  10  750
1477467704.452:     44  80  10  750
1477467704.452:     10  80  10  750
1477467704.453:    -18  80  10  750
1477467704.453:    -30  80  10  750
1477467704.456:    -15  80  10  750
1477467704.457:     50  80  10  750
1477467704.461:    174  80  10  750
1477467704.461:    318  80  10  750
1477467704.463:    399  80  10  750
1477467704.464:    358  80  10  750
1477467704.475:    235  80  10  750
1477467704.475:    117  80  10  750
1477467704.475:     15  80  10  750
1477467704.475:   -182  80  10  750
1477467704.475:   -613  80  10  750
1477467704.477:  -1285  80  10  750
1477467704.478:  -2051  80  10  750
1477467704.480:  -2756  80  10  750
1477467704.483:  -3377  80  10  750
1477467704.485:  -3985  80  10  750
1477467704.494:  -4589  80  10  750
1477467704.494:  -5055  80  10  750
1477467704.494:  -5217  80  10  750
1477467704.494:  -5036  80  10  750
1477467704.494:  -4632  80  10  750
1477467704.497:  -4138  80  10  750
1477467704.498:  -3581  80  10  750
1477467704.503:  -2898  80  10  750
1477467704.513:  -2075  80  10  750
1477467704.513:  -1231  80  10  750
1477467704.514:   -543  80  10  750
1477467704.514:   -110  80  10  750
1477467704.514:    111  80  10  750
1477467704.514:    251  80  10  750
1477467704.516:    403  80  10  750
1477467704.517:    556  80  10  750
1477467704.518:    638  80  10  750
1477467704.521:    605  80  10  750
1477467704.522:    495  80  10  750
1477467704.524:    402  80  10  750
1477467704.533:    397  80  10  750
1477467704.533:    481  80  10  750
1477467704.533:    598  80  10  750
1477467704.533:    697  80  10  750
1477467704.533:    762  80  10  750
1477467704.536:    807  80  10  750
1477467704.538:    850  80  10  750
1477467704.540:    888  80  10  750
1477467704.544:    914  80  10  750
1477467704.544:    931  80  10  750
1477467704.551:    943  80  10  750
1477467704.551:    951  80  10  750
1477467704.551:    945  80  10  750
1477467704.552:    920  80  10  750
1477467704.553:    872  80  10  750
1477467704.557:    813  80  10  750
1477467704.558:    754  80  10  750
1477467704.560:    707  80  10  750
1477467704.561:    676  80  10  750
1477467704.563:    667  80  10  750
1477467704.566:    679  80  10  750
1477467704.568:    703  80  10  750
1477467704.572:    726  80  10  750
1477467704.573:    745  80  10  750
1477467704.585:    762  80  10  750
1477467704.586:    772  80  10  750
1477467704.587:    767  80  10  750
1477467704.588:    745  80  10  750
1477467704.588:    717  80  10  750
1477467704.589:    692  80  10  750
1477467704.589:    674  80  10  750
1477467704.590:    655  80  10  750
1477467704.590:    636  80  10  750
1477467704.591:    629  80  10  750
1477467704.594:    646  80  10  750
1477467704.595:    676  80  10  750
1477467704.605:    697  80  10  750
1477467704.605:    693  80  10  750
1477467704.605:    672  80  10  750
1477467704.606:    649  80  10  750
1477467704.606:    632  80  10  750
1477467704.607:    618  80  10  750
1477467704.608:    596  80  10  750
1477467704.613:    565  80  10  750
1477467704.613:    528  80  10  750
1477467704.615:    490  80  10  750
1477467704.628:    453  80  10  750
1477467704.628:    422  80  10  750
1477467704.629:    403  80  10  750
1477467704.629:    400  80  10  750
1477467704.629:    408  80  10  750
1477467704.629:    419  80  10  750
1477467704.630:    424  80  10  750
1477467704.631:    426  80  10  750
1477467704.632:    429  80  10  750
1477467704.635:    433  80  10  750
1477467704.636:    426  80  10  750
1477467704.640:    405  80  10  750
1477467704.648:    380  80  10  750
1477467704.649:    366  80  10  750
1477467704.649:    361  80  10  750
1477467704.649:    353  80  10  750
1477467704.649:    329  80  10  750
1477467704.650:    299  80  10  750
1477467704.654:    284  80  10  750
1477467704.654:    292  80  10  750
1477467704.656:    303  80  10  750
1477467704.657:    293  80  10  750
1477467704.659:    261  80  10  750
1477467704.662:    236  80  10  750
1477467704.679:    238  80  10  750
1477467704.680:    255  80  10  750
1477467704.681:    254  80  10  750
1477467704.681:    218  80  10  750
1477467704.682:    163  80  10  750
1477467704.682:    125  80  10  750
1477467704.683:    121  80  10  750
1477467704.683:    128  80  10  750
1477467704.684:    120  80  10  750
1477467704.684:     90  80  10  750
1477467704.685:     56  80  10  750
1477467704.685:     32  80  10  750
1477467704.687:     20  80  10  750
1477467704.689:     13  80  10  750
1477467704.698:     10  80  10  750
1477467704.699:     14  80  10  750
1477467704.699:     19  80  10  750
1477467704.699:     13  80  10  750
1477467704.700:     -9  80  10  750
1477467704.701:    -31  80  10  750
1477467704.728:    -39  80  10  750
1477467704.729:    -44  80  10  750
1477467704.730:    -65  80  10  750
1477467704.732:   -109  80  10  750
1477467704.737:   -161  80  10  750
1477467704.737:   -207  80  10  750
1477467704.738:   -251  80  10  750
1477467704.738:   -299  80  10  750
1477467704.738:   -342  80  10  750
1477467704.738:   -359  80  10  750
1477467704.738:   -349  80  10  750
1477467704.738:   -339  80  10  750
1477467704.739:   -355  80  10  750
1477467704.739:   -393  80  10  750
1477467704.739:   -431  80  10  750
1477467704.739:   -457  80  10  750
1477467704.741:   -480  80  10  750
1477467704.741:   -504  80  10  750
1477467704.754:   -509  80  10  750
1477467704.754:   -487  80  10  750
1477467704.754:   -462  80  10  750
1477467704.754:   -474  80  10  750
1477467704.755:   -524  80  10  750
1477467704.755:   -553  80  10  750
1477467704.755:   -505  80  10  750
1477467704.755:   -396  80  10  750
1477467704.755:   -307  80  10  750
1477467704.756:   -305  80  10  750
1477467704.759:   -376  80  10  750
1477467704.761:   -443  80  10  750
1477467704.764:   -445  80  10  750
1477467704.765:   -399  80  10  750
1477467704.767:   -363  80  10  750
1477467704.768:   -378  80  10  750
1477467704.769:   -432  80  10  750
1477467704.772:   -479  80  10  750
1477467704.773:   -475  80  10  750
1477467704.778:   -407  80  10  750
1477467704.778:   -303  80  10  750
1477467704.779:   -214  80  10  750
1477467704.782:   -178  80  10  750
1477467704.783:   -182  80  10  750
1477467704.785:   -176  80  10  750
1477467704.787:   -125  80  10  750
1477467704.799:    -51  80  10  750
1477467704.800:     -8  80  10  750
1477467704.800:    -12  80  10  750
1477467704.800:    -23  80  10  750
1477467704.801:     14  80  10  750
1477467704.801:     96  80  10  750
1477467704.801:    170  80  10  750
1477467704.806:    193  80  10  750
1477467704.806:    177  80  10  750
1477467704.807:    166  80  10  750
1477467704.808:    186  80  10  750
1477467704.810:    221  80  10  750
1477467704.821:    250  80  10  750
1477467704.822:    266  80  10  750
1477467704.822:    274  80  10  750
1477467704.822:    270  80  10  750
1477467704.822:    255  80  10  750
1477467704.823:    240  80  10  750
1477467704.828:    246  80  10  750
1477467704.828:    279  80  10  750
1477467704.829:    317  80  10  750
1477467704.830:    332  80  10  750
1477467704.832:    325  80  10  750
1477467704.835:    315  80  10  750
1477467704.849:    322  80  10  750
1477467704.849:    338  80  10  750
1477467704.849:    344  80  10  750
1477467704.849:    335  80  10  750
1477467704.849:    323  80  10  750
1477467704.849:    318  80  10  750
1477467704.849:    318  80  10  750
1477467704.853:    317  80  10  750
1477467704.853:    311  80  10  750
1477467704.855:    308  80  10  750
1477467704.856:    309  80  10  750
1477467704.861:    306  80  10  750
1477467704.869:    290  80  10  750
1477467704.869:    268  80  10  750
1477467704.877:    257  80  10  750
1477467704.877:    269  80  10  750
1477467704.877:    288  80  10  750
1477467704.877:    296  80  10  750
1477467704.880:    287  80  10  750
1477467704.880:    277  80  10  750
1477467704.880:    288  80  10  750
1477467704.884:    316  80  10  750
1477467704.891:    342  80  10  750
1477467704.891:    340  80  10  750
1477467704.892:    313  80  10  750
1477467704.892:    283  80  10  750
1477467704.892:    270  80  10  750
1477467704.892:    276  80  10  750
1477467704.892:    283  80  10  750
1477467704.898:    268  80  10  750
1477467704.898:    231  80  10  750
1477467704.898:    190  80  10  750
1477467704.901:    172  80  10  750
1477467704.901:    186  80  10  750
1477467704.912:    216  80  10  750
1477467704.912:    236  80  10  750
1477467704.912:    231  80  10  750
1477467704.912:    212  80  10  750
1477467704.913:    202  80  10  750
1477467704.913:    212  80  10  750
1477467704.914:    234  80  10  750
1477467704.917:    248  80  10  750
1477467704.919:    239  80  10  750
1477467704.921:    212  80  10  750
1477467704.931:    184  80  10  750
1477467704.931:    167  80  10  750
1477467704.931:    157  80  10  750
1477467704.931:    137  80  10  750
1477467704.931:    100  80  10  750
1477467704.933:     64  80  10  750
1477467704.937:     54  80  10  750
1477467704.938:     74  80  10  750
1477467704.939:    104  80  10  750
1477467704.942:    124  80  10  750
1477467704.949:    146  80  10  750
1477467704.949:    190  80  10  750
1477467704.950:    257  80  10  750
1477467704.952:    312  80  10  750
1477467704.952:    316  80  10  750
1477467704.953:    276  80  10  750
1477467704.955:    238  80  10  750
1477467704.955:    232  80  10  750
1477467704.958:    247  80  10  750
1477467704.960:    247  80  10  750
1477467704.968:    217  80  10  750
1477467704.969:    177  80  10  750
1477467704.969:    158  80  10  750
1477467704.970:    175  80  10  750
1477467704.970:    217  80  10  750
1477467704.972:    263  80  10  750
1477467704.974:    292  80  10  750
1477467704.979:    292  80  10  750
1477467704.988:    264  80  10  750
1477467705.039:    218  80  10  750
1477467705.039:    160  80  10  750
1477467705.039:     94  80  10  750
1477467705.039:     27  80  10  750
1477467705.039:    -16  80  10  750
1477467705.039:    -12  80  10  750
1477467705.040:     27  80  10  750
1477467705.040:     67  80  10  750
1477467705.040:     79  80  10  750
1477467705.040:     81  80  10  750
1477467705.040:    113  80  10  750
1477467705.040:    187  80  10  750
1477467705.041:    266  80  10  750
1477467705.041:    304  80  10  750
1477467705.041:    284  80  10  750
1477467705.041:    233  80  10  750
1477467705.042:    191  80  10  750
1477467705.042:    180  80  10  750
1477467705.042:    202  80  10  750
1477467705.042:    236  80  10  750
1477467705.042:    253  80  10  750
1477467705.042:    231  80  10  750
1477467705.043:    181  80  10  750
1477467705.043:    137  80  10  750
1477467705.043:    129  80  10  750
1477467705.043:    154  80  10  750
1477467705.043:    173  80  10  750
1477467705.044:    157  80  10  750
1477467705.044:    112  80  10  750
1477467705.044:     65  80  10  750
1477467705.044:     34  80  10  750
1477467705.044:     19  80  10  750
1477467705.044:     11  80  10  750
1477467705.057:      3  80  10  750
1477467705.057:     -8  80  10  750
1477467705.058:    -29  80  10  750
1477467705.058:    -61  80  10  750
1477467705.058:    -95  80  10  750
1477467705.058:   -116  80  10  750
1477467705.058:   -121  80  10  750
1477467705.062:   -120  80  10  750
1477467705.062:   -122  80  10  750
1477467705.063:   -123  80  10  750
1477467705.067:   -116  80  10  750
1477467705.068:   -102  80  10  750
1477467705.068:    -94  80  10  750
1477467705.070:    -98  80  10  750
1477467705.082:   -105  80  10  750
1477467705.082:   -101  80  10  750
1477467705.082:    -89  80  10  750
1477467705.082:    -88  80  10  750
1477467705.082:   -107  80  10  750
1477467705.083:   -134  80  10  750
1477467705.084:   -144  80  10  750
1477467705.089:   -127  80  10  750
1477467705.089:   -104  80  10  750
1477467705.091:    -99  80  10  750
1477467705.092:   -117  80  10  750
1477467705.093:   -137  80  10  750
1477467705.104:   -139  80  10  750
1477467705.104:   -125  80  10  750
1477467705.105:   -109  80  10  750
1477467705.105:   -104  80  10  750
1477467705.105:   -109  80  10  750
1477467705.106:   -118  80  10  750
1477467705.107:   -130  80  10  750
1477467705.109:   -143  80  10  750
1477467705.112:   -154  80  10  750
1477467705.116:   -152  80  10  750
1477467705.123:   -131  80  10  750
1477467705.123:    -94  80  10  750
1477467705.123:    -49  80  10  750
1477467705.123:     -6  80  10  750
1477467705.123:     22  80  10  750
1477467705.126:     27  80  10  750
1477467705.127:     20  80  10  750
1477467705.129:     28  80  10  750
1477467705.130:     68  80  10  750
1477467705.135:    120  80  10  750
1477467705.144:    145  80  10  750
1477467705.145:    123  80  10  750
1477467705.145:     89  80  10  750
1477467705.145:     95  80  10  750
1477467705.145:    148  80  10  750
1477467705.145:    207  80  10  750
1477467705.147:    232  80  10  750
1477467705.148:    231  80  10  750
1477467705.151:    234  80  10  750
1477467705.153:    238  80  10  750
1477467705.164:    211  80  10  750
1477467705.164:    148  80  10  750
1477467705.164:    101  80  10  750
1477467705.164:    129  80  10  750
1477467705.164:    219  80  10  750
1477467705.165:    290  80  10  750
1477467705.168:    290  80  10  750
1477467705.172:    256  80  10  750
1477467705.172:    280  80  10  750
1477467705.173:    393  80  10  750
1477467705.183:    525  80  10  750
1477467705.184:    576  80  10  750
1477467705.184:    514  80  10  750
1477467705.184:    394  80  10  750
1477467705.185:    292  80  10  750
1477467705.185:    240  80  10  750
1477467705.220:    215  80  10  750
1477467705.220:    183  80  10  750
1477467705.230:    135  80  10  750
1477467705.231:     83  80  10  750
1477467705.231:     40  80  10  750
1477467705.231:     17  80  10  750
1477467705.231:     24  80  10  750
1477467705.232:     88  80  10  750
1477467705.232:    215  80  10  750
1477467705.232:    365  80  10  750
1477467705.232:    456  80  10  750
1477467705.232:    437  80  10  750
1477467705.232:    337  80  10  750
1477467705.232:    238  80  10  750
1477467705.233:    161  80  10  750
1477467705.233:      9  80  10  750
1477467705.233:   -343  80  10  750
1477467705.233:   -914  80  10  750
1477467705.233:  -1583  80  10  750
1477467705.233:  -2222  80  10  750
1477467705.234:  -2805  80  10  750
1477467705.234:  -3388  80  10  750
1477467705.234:  -3963  80  10  750
1477467705.234:  -4398  80  10  750
1477467705.235:  -4544  80  10  750
1477467705.237:  -4382  80  10  750
1477467705.240:  -4029  80  10  750
1477467705.240:  -3606  80  10  750
1477467705.255:  -3123  80  10  750
1477467705.256:  -2516  80  10  750
1477467705.256:  -1780  80  10  750
1477467705.256:  -1040  80  10  750
1477467705.256:   -462  80  10  750
1477467705.256:   -119  80  10  750
1477467705.256:     62  80  10  750
1477467705.257:    212  80  10  750
1477467705.257:    387  80  10  750
1477467705.258:    528  80  10  750
1477467705.264:    552  80  10  750
1477467705.264:    462  80  10  750
1477467705.267:    362  80  10  750
1477467705.268:    349  80  10  750
1477467705.280:    422  80  10  750
1477467705.281:    501  80  10  750
1477467705.281:    529  80  10  750
1477467705.281:    524  80  10  750
1477467705.281:    540  80  10  750
1477467705.281:    589  80  10  750
1477467705.281:    637  80  10  750
1477467705.283:    645  80  10  750
1477467705.285:    618  80  10  750
1477467705.286:    591  80  10  750
1477467705.288:    585  80  10  750
1477467705.291:    600  80  10  750
1477467705.300:    620  80  10  750
1477467705.300:    633  80  10  750
1477467705.300:    631  80  10  750
1477467705.300:    612  80  10  750
1477467705.301:    585  80  10  750
1477467705.305:    563  80  10  750
1477467705.307:    547  80  10  750
1477467705.309:    533  80  10  750
1477467705.320:    516  80  10  750
1477467705.320:    502  80  10  750
1477467705.320:    489  80  10  750
1477467705.320:    471  80  10  750
1477467705.321:    445  80  10  750
1477467705.321:    419  80  10  750
1477467705.322:    406  80  10  750
1477467705.323:    408  80  10  750
1477467705.324:    410  80  10  750
1477467705.326:    408  80  10  750
1477467705.327:    411  80  10  750
1477467705.329:    429  80  10  750
1477467705.332:    450  80  10  750
1477467705.336:    450  80  10  750
1477467705.343:    423  80  10  750
1477467705.344:    389  80  10  750
1477467705.344:    377  80  10  750
1477467705.344:    386  80  10  750
1477467705.346:    386  80  10  750
1477467705.347:    352  80  10  750
1477467705.350:    297  80  10  750
1477467705.350:    256  80  10  750
1477467705.352:    251  80  10  750
1477467705.353:    271  80  10  750
1477467705.361:    284  80  10  750
1477467705.361:    274  80  10  750
1477467705.362:    256  80  10  750
1477467705.364:    261  80  10  750
1477467705.364:    304  80  10  750
1477467705.366:    368  80  10  750
1477467705.367:    418  80  10  750
1477467705.368:    427  80  10  750
1477467705.371:    402  80  10  750
1477467705.373:    378  80  10  750
1477467705.380:    382  80  10  750
1477467705.380:    415  80  10  750
1477467705.380:    446  80  10  750
1477467705.380:    443  80  10  750
1477467705.382:    403  80  10  750
1477467705.387:    349  80  10  750
1477467705.399:    316  80  10  750
1477467705.400:    317  80  10  750
1477467705.400:    345  80  10  750
1477467705.400:    375  80  10  750
1477467705.400:    385  80  10  750
1477467705.400:    368  80  10  750
1477467705.401:    337  80  10  750
1477467705.402:    313  80  10  750
1477467705.405:    314  80  10  750
1477467705.405:    333  80  10  750
1477467705.408:    344  80  10  750
1477467705.410:    324  80  10  750
1477467705.420:    271  80  10  750
1477467705.420:    211  80  10  750
1477467705.420:    172  80  10  749
1477467705.420:    163  80  10  749
1477467705.421:    168  80  10  749
1477467705.421:    165  80  10  749
1477467705.422:    150  80  10  749
1477467705.423:    130  80  10  749
1477467705.428:    110  80  10  749
1477467705.429:     92  80  10  749
1477467705.439:     81  80  10  749
1477467705.439:     85  80  10  749
1477467705.439:    103  80  10  749
1477467705.439:    118  80  10  749
1477467705.439:    105  80  10  749
1477467705.439:     61  80  10  749
1477467705.442:      9  80  10  749
1477467705.446:    -25  80  10  749
1477467705.446:    -41  80  10  749
1477467705.448:    -58  80  10  749
1477467705.459:    -90  80  10  749
1477467705.460:   -127  80  10  749
1477467705.460:   -148  80  10  749
1477467705.460:   -153  80  10  749
1477467705.460:   -163  80  10  749
1477467705.460:   -191  80  10  749
1477467705.462:   -229  80  10  749
1477467705.463:   -261  80  10  749
1477467705.464:   -279  80  10  749
1477467705.470:   -298  80  10  749
1477467705.479:   -331  80  10  749
1477467705.479:   -373  80  10  749
1477467705.479:   -407  80  10  749
1477467705.479:   -424  80  10  749
1477467705.480:   -426  80  10  749
1477467705.480:   -422  80  10  749
1477467705.481:   -422  80  10  749
1477467705.483:   -431  80  10  749
1477467705.487:   -451  80  10  749
1477467705.487:   -478  80  10  749
1477467705.498:   -506  80  10  749
1477467705.499:   -523  80  10  749
1477467705.499:   -530  80  10  749
1477467705.499:   -539  80  10  749
1477467705.499:   -559  80  10  749
1477467705.501:   -587  80  10  749
1477467705.502:   -606  80  10  749
1477467705.503:   -601  80  10  749
1477467705.504:   -577  80  10  749
1477467705.505:   -554  80  10  749
1477467705.511:   -553  80  10  749
1477467705.512:   -570  80  10  749
1477467705.517:   -580  80  10  749
1477467705.517:   -562  80  10  749
1477467705.517:   -524  80  10  749
1477467705.518:   -493  80  10  749
1477467705.520:   -482  80  10  749
1477467705.522:   -480  80  10  749
1477467705.524:   -459  80  10  749
1477467705.529:   -410  80  10  749
1477467705.538:   -346  80  10  749
1477467705.538:   -291  80  10  749
1477467705.538:   -252  80  10  749
1477467705.538:   -220  80  10  749
1477467705.538:   -186  80  10  749
1477467705.539:   -153  80  10  749
1477467705.542:   -122  80  10  749
1477467705.543:    -95  80  10  749
1477467705.545:    -70  80  10  749
1477467705.546:    -53  80  10  749
1477467705.547:    -41  80  10  749
1477467705.552:    -24  80  10  749
1477467705.552:      9  80  10  749
1477467705.556:     51  80  10  749
1477467705.564:     87  80  10  749
1477467705.564:    104  80  10  749
1477467705.564:    115  80  10  749
1477467705.564:    133  80  10  749
1477467705.564:    158  80  10  749
1477467705.566:    177  80  10  749
1477467705.570:    182  80  10  749
1477467705.570:    183  80  10  749
1477467705.572:    194  80  10  749
1477467705.573:    212  80  10  749
1477467705.582:    222  80  10  749
1477467705.583:    221  80  10  749
1477467705.583:    217  80  10  749
1477467705.584:    218  80  10  749
1477467705.585:    219  80  10  749
1477467705.586:    216  80  10  749
1477467705.587:    219  80  10  749
1477467705.588:    232  80  10  749
1477467705.591:    243  80  10  749
1477467705.593:    230  80  10  749
1477467705.599:    195  80  10  749
1477467705.599:    171  80  10  749
1477467705.600:    194  80  10  749
1477467705.601:    253  80  10  749
1477467705.602:    301  80  10  749
1477467705.604:    300  80  10  749
1477467705.607:    265  80  10  749
1477467705.611:    245  80  10  749
1477467705.616:    268  80  10  749
1477467705.616:    319  80  10  749
1477467705.617:    360  80  10  749
1477467705.617:    369  80  10  749
1477467705.619:    357  80  10  749
1477467705.622:    345  80  10  749
1477467705.625:    343  80  10  749
1477467705.625:    345  80  10  749
1477467705.634:    343  80  10  749
1477467705.635:    335  80  10  749
1477467705.635:    328  80  10  749
1477467705.635:    326  80  10  749
1477467705.635:    324  80  10  749
1477467705.639:    316  80  10  749
1477467705.639:    305  80  10  749
1477467705.640:    301  80  10  749
1477467705.642:    314  80  10  749
1477467705.643:    333  80  10  749
1477467705.653:    337  80  10  749
1477467705.653:    316  80  10  749
1477467705.653:    285  80  10  749
1477467705.653:    268  80  10  749
1477467705.654:    272  80  10  749
1477467705.655:    281  80  10  749
1477467705.657:    278  80  10  749
1477467705.659:    267  80  10  749
1477467705.662:    269  80  10  749
1477467705.666:    286  80  10  749
1477467705.675:    293  80  10  749
1477467705.675:    271  80  10  749
1477467705.675:    233  80  10  749
1477467705.675:    212  80  10  749
1477467705.676:    222  80  10  749
1477467705.676:    241  80  10  749
1477467705.680:    233  80  10  749
1477467705.680:    198  80  10  749
1477467705.682:    170  80  10  749
1477467705.683:    174  80  10  749
1477467705.692:    197  80  10  749
1477467705.692:    203  80  10  749
1477467705.692:    180  80  10  749
1477467705.694:    152  80  10  749
1477467705.694:    148  80  10  749
1477467705.696:    165  80  10  749
1477467705.697:    172  80  10  749
1477467705.698:    148  80  10  749
1477467705.702:    108  80  10  749
1477467705.707:     85  80  10  749
1477467705.713:     91  80  10  749
1477467705.713:    107  80  10  749
1477467705.713:    109  80  10  749
1477467705.713:     95  80  10  749
1477467705.713:     86  80  10  749
1477467705.714:     94  80  10  749
1477467705.717:    108  80  10  749
1477467705.721:    112  80  10  749
1477467705.767:    104  80  10  749
1477467705.768:     98  80  10  749
1477467705.768:    102  80  10  749
1477467705.768:    104  80  10  749
1477467705.768:     86  80  10  749
1477467705.768:     54  80  10  749
1477467705.768:     32  80  10  749
1477467705.768:     36  80  10  749
1477467705.768:     58  80  10  749
1477467705.769:     68  80  10  749
1477467705.769:     49  80  10  749
1477467705.769:      9  80  10  749
1477467705.769:    -30  80  10  749
1477467705.769:    -45  80  10  749
1477467705.769:    -34  80  10  749
1477467705.769:     -8  80  10  749
1477467705.769:      9  80  10  749
1477467705.770:      3  80  10  749
1477467705.770:    -17  80  10  749
1477467705.770:    -21  80  10  749
1477467705.770:     15  80  10  749
1477467705.770:     78  80  10  749
1477467705.770:    122  80  10  749
1477467705.770:    115  80  10  749
1477467705.771:     69  80  10  749
1477467705.771:     33  80  10  749
1477467705.772:     38  80  10  749
1477467705.776:     63  80  10  749
1477467705.777:     67  80  10  749
1477467705.779:     37  80  10  749
1477467705.779:     -4  80  10  749
1477467705.781:    -22  80  10  749
1477467705.790:     -9  80  10  749
1477467705.790:     21  80  10  749
1477467705.790:     53  80  10  749
1477467705.790:     82  80  10  749
1477467705.792:    106  80  10  749
1477467705.793:    121  80  10  749
1477467705.796:    124  80  10  749
1477467705.797:    115  80  10  749
1477467705.799:     99  80  10  749
1477467705.804:     76  80  10  749
1477467705.810:     44  80  10  749
1477467705.810:      9  80  10  749
1477467705.810:    -22  80  10  749
1477467705.810:    -45  80  10  749
1477467705.811:    -63  80  10  749
1477467705.814:    -79  80  10  749
1477467705.817:    -91  80  10  749
1477467705.817:    -90  80  10  749
1477467705.820:    -71  80  10  749
1477467705.821:    -41  80  10  749
1477467705.822:    -16  80  10  749
1477467705.824:    -14  80  10  749
1477467705.832:    -38  80  10  749
1477467705.833:    -76  80  10  749
1477467705.833:   -103  80  10  749
1477467705.834:   -109  80  10  749
1477467705.834:   -101  80  10  749
1477467705.836:    -96  80  10  749
1477467705.838:   -107  80  10  749
1477467705.840:   -131  80  10  749
1477467705.850:   -148  80  10  749
1477467705.850:   -143  80  10  749
1477467705.850:   -113  80  10  749
1477467705.850:    -73  80  10  749
1477467705.851:    -49  80  10  749
1477467705.852:    -55  80  10  749
1477467705.854:    -77  80  10  749
1477467705.859:    -84  80  10  749
1477467705.867:    -49  80  10  749
1477467705.867:     14  80  10  749
1477467705.867:     69  80  10  749
1477467705.867:     86  80  10  749
1477467705.867:     76  80  10  749
1477467705.868:     76  80  10  749
1477467705.872:    106  80  10  749
1477467705.873:    151  80  10  749
1477467705.874:    181  80  10  749
1477467705.875:    182  80  10  749
1477467705.884:    167  80  10  749
1477467705.884:    158  80  10  749
1477467705.884:    164  80  10  749
1477467705.886:    177  80  10  749
1477467705.886:    187  80  10  749
1477467705.888:    192  80  10  749
1477467705.889:    193  80  10  749
1477467705.890:    192  80  10  749
1477467705.893:    193  80  10  749
1477467705.896:    201  80  10  749
1477467705.900:    216  80  10  749
1477467705.900:    228  80  10  749
1477467705.909:    226  80  10  749
1477467705.909:    210  80  10  749
1477467705.909:    190  80  10  749
1477467705.910:    176  80  10  749
1477467705.910:    168  80  10  749
1477467705.915:    165  80  10  749
1477467705.915:    167  80  10  749
1477467705.915:    177  80  10  749
1477467705.926:    190  80  10  749
1477467705.927:    199  80  10  749
1477467705.927:    200  80  10  749
1477467705.928:    199  80  10  749
1477467705.928:    197  80  10  749
1477467705.928:    190  80  10  749
1477467705.929:    169  80  10  749
1477467705.930:    135  80  10  749
1477467705.932:     94  80  10  749
1477467705.934:     58  80  10  749
1477467705.943:     23  80  10  749
1477467705.943:    -18  80  10  749
1477467705.943:    -65  80  10  749
1477467705.944:   -108  80  10  749
1477467705.944:   -118  80  10  749
1477467705.945:    -60  80  10  749
1477467705.948:     75  80  10  749
1477467705.950:    249  80  10  749
1477467705.960:    386  80  10  749
1477467705.960:    433  80  10  749
1477467705.960:    407  80  10  749
1477467705.960:    359  80  10  749
1477467705.961:    281  80  10  749
1477467705.962:     73  80  10  749
1477467705.964:   -369  80  10  749
1477467705.969:  -1039  80  10  749
1477467705.977:  -1809  80  10  749
1477467705.978:  -2559  80  10  749
1477467705.978:  -3277  80  10  749
1477467705.978:  -4008  80  10  749
1477467705.978:  -4717  80  10  749
1477467705.979:  -5241  80  10  749
1477467705.983:  -5414  80  10  749
1477467705.983:  -5226  80  10  749
1477467706.009:  -4820  80  10  749
1477467706.010:  -4341  80  10  749
1477467706.013:  -3801  80  10  749
1477467706.015:  -3117  80  10  749
1477467706.015:  -2266  80  10  749
1477467706.015:  -1373  80  10  749
1477467706.015:   -638  80  10  749
1477467706.015:   -174  80  10  749
1477467706.015:     68  80  10  749
1477467706.016:    229  80  10  749
1477467706.016:    404  80  10  749
1477467706.016:    579  80  10  749
1477467706.017:    679  80  10  749
1477467706.017:    668  80  10  749
1477467706.017:    597  80  10  749
1477467706.017:    558  80  10  749
1477467706.017:    609  80  10  749
1477467706.018:    732  80  10  749
1477467706.020:    860  80  10  749
1477467706.024:    941  80  10  749
1477467706.031:    968  80  10  749
1477467706.031:    967  80  10  749
1477467706.032:    963  80  10  749
1477467706.032:    958  80  10  749
1477467706.033:    945  80  10  749
1477467706.033:    925  80  10  749
1477467706.037:    911  80  10  749
1477467706.038:    911  80  10  749
1477467706.039:    916  80  10  749
1477467706.042:    911  80  10  749
1477467706.049:    894  80  10  749
1477467706.049:    879  80  10  749
1477467706.050:    872  80  10  749
1477467706.052:    862  80  10  749
1477467706.052:    835  80  10  749
1477467706.053:    792  80  10  749
1477467706.054:    759  80  10  749
1477467706.056:    754  80  10  749
1477467706.058:    768  80  10  749
1477467706.060:    775  80  10  749
1477467706.067:    762  80  10  749
1477467706.067:    736  80  10  749
1477467706.067:    714  80  10  749
1477467706.070:    700  80  10  749
1477467706.070:    691  80  10  749
1477467706.072:    683  80  10  749
1477467706.074:    678  80  10  749
1477467706.080:    671  80  10  749
1477467706.084:    661  80  10  749
1477467706.084:    653  80  10  749
1477467706.084:    656  80  10  749
1477467706.084:    667  80  10  749
1477467706.086:    665  80  10  749
1477467706.088:    641  80  10  749
1477467706.093:    607  80  10  749
1477467706.093:    593  80  10  749
1477467706.095:    599  80  10  749
1477467706.095:    602  80  10  749
1477467706.097:    577  80  10  749
1477467706.099:    528  80  10  749
1477467706.110:    482  80  10  749
1477467706.110:    461  80  10  749
1477467706.110:    459  80  10  749
1477467706.111:    464  80  10  749
1477467706.111:    466  80  10  749
1477467706.111:    465  80  10  749
1477467706.113:    458  80  10  749
1477467706.116:    445  80  10  749
1477467706.120:    427  80  10  749
1477467706.120:    411  80  10  749
1477467706.134:    403  80  10  749
1477467706.134:    399  80  10  749
1477467706.135:    396  80  10  749
1477467706.135:    394  80  10  749
1477467706.135:    388  80  10  749
1477467706.135:    372  80  10  749
1477467706.135:    354  80  10  749
1477467706.136:    346  80  10  749
1477467706.137:    355  80  10  749
1477467706.138:    364  80  10  749
1477467706.140:    349  80  10  749
1477467706.143:    305  80  10  749
1477467706.153:    250  80  10  749
1477467706.153:    215  80  10  749
1477467706.153:    214  80  10  749
1477467706.154:    239  80  10  749
1477467706.154:    270  80  10  749
1477467706.154:    284  80  10  749
1477467706.157:    273  80  10  745
1477467706.162:    248  80  10  745
1477467706.162:    236  80  10  745
1477467706.163:    252  80  10  745
1477467706.164:    272  80  10  745
1477467706.165:    261  80  10  745
1477467706.175:    214  80  10  745
1477467706.175:    177  80  10  745
1477467706.176:    201  80  10  745
1477467706.176:    285  80  10  745
1477467706.177:    365  80  10  745
1477467706.178:    389  80  10  745
1477467706.179:    370  80  10  745
1477467706.182:    359  80  10  745
1477467706.185:    382  80  10  745
1477467706.189:    399  80  10  745
1477467706.195:    354  80  10  745
1477467706.195:    240  80  10  745
1477467706.225:    107  80  10  745
1477467706.225:     15  80  10  745
1477467706.236:    -23  80  10  745
1477467706.236:    -35  80  10  745
1477467706.236:    -51  80  10  745
1477467706.236:    -73  80  10  745
1477467706.237:    -84  80  10  745
1477467706.237:    -71  80  10  745
1477467706.237:    -44  80  10  745
1477467706.237:    -22  80  10  745
1477467706.237:    -22  80  10  745
1477467706.238:    -43  80  10  745
1477467706.238:    -76  80  10  745
1477467706.238:   -112  80  10  745
1477467706.238:   -145  80  10  745
1477467706.239:   -176  80  10  745
1477467706.239:   -206  80  10  745
1477467706.240:   -237  80  10  745
1477467706.240:   -270  80  10  745
1477467706.240:   -308  80  10  745
1477467706.240:   -353  80  10  745
1477467706.240:   -401  80  10  745
1477467706.243:   -446  80  10  745
1477467706.244:   -481  80  10  745
1477467706.244:   -503  80  10  745
1477467706.244:   -513  80  10  745
1477467706.245:   -510  80  10  745
1477467706.246:   -499  80  10  745
1477467706.256:   -485  80  10  745
1477467706.256:   -474  80  10  745
1477467706.256:   -462  80  10  745
1477467706.256:   -445  80  10  745
1477467706.257:   -425  80  10  745
1477467706.257:   -418  80  10  745
1477467706.259:   -434  80  10  745
1477467706.262:   -464  80  10  745
1477467706.263:   -484  80  10  745
1477467706.264:   -473  80  10  745
1477467706.267:   -439  80  10  745
1477467706.269:   -406  80  10  745
1477467706.270:   -385  80  10  745
1477467706.272:   -364  80  10  745
1477467706.276:   -325  80  10  745
1477467706.276:   -266  80  10  745
1477467706.290:   -200  80  10  745
1477467706.290:   -143  80  10  745
1477467706.290:   -101  80  10  745
1477467706.290:    -75  80  10  745
1477467706.290:    -64  80  10  745
1477467706.290:    -57  80  10  745
1477467706.291:    -36  80  10  745
1477467706.292:     10  80  10  745
1477467706.294:     66  80  10  745
1477467706.299:    106  80  10  745
1477467706.299:    114  80  10  745
1477467706.300:    103  80  10  745
1477467706.316:    100  80  10  745
1477467706.316:    110  80  10  745
1477467706.316:    120  80  10  745
1477467706.316:    116  80  10  745
1477467706.316:    106  80  10  745
1477467706.316:    104  80  10  745
1477467706.316:    116  80  10  745
1477467706.317:    133  80  10  745
1477467706.317:    150  80  10  745
1477467706.319:    176  80  10  745
1477467706.322:    214  80  10  745
1477467706.326:    252  80  10  745
1477467706.343:    261  80  10  745
1477467706.343:    233  80  10  745
1477467706.344:    191  80  10  745
1477467706.344:    173  80  10  745
1477467706.344:    188  80  10  745
1477467706.344:    207  80  10  745
1477467706.345:    197  80  10  745
1477467706.345:    159  80  10  745
1477467706.345:    128  80  10  745
1477467706.345:    130  80  10  745
1477467706.346:    155  80  10  745
1477467706.347:    172  80  10  745
1477467706.349:    162  80  10  745
1477467706.353:    139  80  10  745
1477467706.363:    130  80  10  745
1477467706.363:    140  80  10  745
1477467706.363:    147  80  10  745
1477467706.363:    140  80  10  745
1477467706.363:    134  80  10  745
1477467706.363:    153  80  10  745
1477467706.367:    198  80  10  745
1477467706.368:    240  80  10  745
1477467706.369:    253  80  10  745
1477467706.371:    243  80  10  745
1477467706.372:    239  80  10  745
1477467706.374:    254  80  10  745
1477467706.384:    274  80  10  745
1477467706.384:    266  80  10  745
1477467706.385:    217  80  10  745
1477467706.385:    156  80  10  745
1477467706.385:    126  80  10  745
1477467706.386:    146  80  10  745
1477467706.388:    196  80  10  745
1477467706.391:    235  80  10  745
1477467706.395:    248  80  10  745
1477467706.395:    256  80  10  745
1477467706.402:    293  80  10  745
1477467706.402:    366  80  10  745
1477467706.402:    439  80  10  745
1477467706.402:    468  80  10  745
1477467706.404:    441  80  10  745
1477467706.409:    394  80  10  745
1477467706.409:    368  80  10  745
1477467706.411:    375  80  10  745
1477467706.412:    391  80  10  745
1477467706.414:    387  80  10  745
1477467706.415:    356  80  10  745
1477467706.418:    313  80  10  745
1477467706.422:    280  80  10  745
1477467706.423:    271  80  10  745
1477467706.434:    278  80  10  745
1477467706.435:    275  80  10  745
1477467706.435:    243  80  10  745
1477467706.435:    193  80  10  745
1477467706.435:    152  80  10  745
1477467706.436:    146  80  10  745
1477467706.436:    168  80  10  745
1477467706.438:    190  80  10  745
1477467706.439:    194  80  10  745
1477467706.441:    189  80  10  745
1477467706.443:    192  80  10  745
1477467706.446:    206  80  10  745
1477467706.453:    214  80  10  745
1477467706.454:    211  80  10  745
1477467706.454:    209  80  10  745
1477467706.454:    223  80  10  745
1477467706.454:    247  80  10  745
1477467706.457:    260  80  10  745
1477467706.510:    252  80  10  745
1477467706.510:    237  80  10  745
1477467706.511:    235  80  10  745
1477467706.511:    248  80  10  745
1477467706.511:    253  80  10  745
1477467706.511:    227  80  10  745
1477467706.511:    179  80  10  745
1477467706.511:    137  80  10  745
1477467706.511:    127  80  10  745
1477467706.512:    144  80  10  745
1477467706.512:    158  80  10  745
1477467706.512:    149  80  10  745
1477467706.512:    128  80  10  745
1477467706.512:    117  80  10  745
1477467706.512:    125  80  10  745
1477467706.513:    140  80  10  745
1477467706.513:    147  80  10  745
1477467706.513:    142  80  10  745
1477467706.513:    133  80  10  745
1477467706.513:    123  80  10  745
1477467706.513:    111  80  10  745
1477467706.514:    100  80  10  745
1477467706.514:     96  80  10  745
1477467706.514:     97  80  10  745
1477467706.514:     90  80  10  745
1477467706.514:     72  80  10  745
1477467706.514:     57  80  10  745
1477467706.514:     58  80  10  745
1477467706.514:     72  80  10  745
1477467706.519:     73  80  10  745
1477467706.519:     50  80  10  745
1477467706.521:     23  80  10  745
1477467706.522:     21  80  10  745
1477467706.523:     50  80  10  745
1477467706.527:     86  80  10  745
1477467706.528:    100  80  10  745
1477467706.535:     87  80  10  745
1477467706.535:     61  80  10  745
1477467706.535:     41  80  10  745
1477467706.536:     27  80  10  745
1477467706.538:      6  80  10  745
1477467706.539:    -36  80  10  745
1477467706.543:   -102  80  10  745
1477467706.546:   -180  80  10  745
1477467706.554:   -248  80  10  745
1477467706.554:   -284  80  10  745
1477467706.554:   -284  80  10  745
1477467706.554:   -259  80  10  745
1477467706.555:   -223  80  10  745
1477467706.555:   -182  80  10  745
1477467706.561:   -138  80  10  745
1477467706.561:    -96  80  10  745
1477467706.562:    -68  80  10  745
1477467706.563:    -61  80  10  745
1477467706.564:    -66  80  10  745
1477467706.567:    -67  80  10  745
1477467706.569:    -68  80  10  745
1477467706.574:    -85  80  10  745
1477467706.583:   -132  80  10  745
1477467706.583:   -188  80  10  745
1477467706.583:   -214  80  10  745
1477467706.584:   -190  80  10  745
1477467706.584:   -135  80  10  745
1477467706.584:    -90  80  10  745
1477467706.588:    -72  80  10  745
1477467706.589:    -62  80  10  745
1477467706.590:    -39  80  10  745
1477467706.591:     -4  80  10  745
1477467706.592:     20  80  10  745
1477467706.595:     18  80  10  745
1477467706.597:     -4  80  10  745
1477467706.602:    -28  80  10  745
1477467706.602:    -42  80  10  745
1477467706.603:    -40  80  10  745
1477467706.604:    -28  80  10  745
1477467706.605:    -15  80  10  745
1477467706.608:     -9  80  10  745
1477467706.610:     -6  80  10  745
1477467706.615:     14  80  10  745
1477467706.615:     64  80  10  745
1477467706.627:    131  80  10  745
1477467706.628:    184  80  10  745
1477467706.632:    205  80  10  745
1477467706.632:    211  80  10  745
1477467706.632:    225  80  10  745
1477467706.632:    242  80  10  745
1477467706.632:    244  80  10  745
1477467706.633:    228  80  10  745
1477467706.633:    219  80  10  745
1477467706.634:    232  80  10  745
1477467706.636:    253  80  10  745
1477467706.638:    254  80  10  745
1477467706.642:    236  80  10  745
1477467706.642:    233  80  10  745
1477467706.644:    266  80  10  745
1477467706.645:    309  80  10  745
1477467706.647:    321  80  10  745
1477467706.650:    299  80  10  745
1477467706.667:    279  80  10  745
1477467706.668:    289  80  10  745
1477467706.668:    311  80  10  745
1477467706.668:    308  80  10  745
1477467706.668:    277  80  10  745
1477467706.668:    256  80  10  745
1477467706.668:    269  80  10  745
1477467706.668:    295  80  10  745
1477467706.670:    288  80  10  745
1477467706.670:    231  80  10  745
1477467706.672:    162  80  10  745
1477467706.673:    128  80  10  745
1477467706.678:    138  80  10  745
1477467706.678:    158  80  10  745
1477467706.679:    150  80  10  745
1477467706.684:    105  80  10  745
1477467706.694:     49  80  10  745
1477467706.694:     10  80  10  745
1477467706.694:     -5  80  10  745
1477467706.694:     -8  80  10  745
1477467706.694:     -4  80  10  745
1477467706.694:     21  80  10  745
1477467706.697:     95  80  10  745
1477467706.698:    227  80  10  745
1477467706.699:    383  80  10  745
1477467706.700:    498  80  10  745
1477467706.702:    525  80  10  745
1477467706.704:    474  80  10  745
1477467706.707:    384  80  10  745
1477467706.711:    250  80  10  745
1477467706.718:     -1  80  10  745
1477467706.719:   -455  80  10  745
1477467706.719:  -1117  80  10  745
1477467706.719:  -1899  80  10  745
1477467706.719:  -2693  80  10  745
1477467706.720:  -3461  80  10  745
1477467706.725:  -4221  80  10  745
1477467706.725:  -4938  80  10  745
1477467706.727:  -5480  80  10  745
1477467706.728:  -5697  80  10  745
1477467706.729:  -5555  80  10  745
1477467706.732:  -5160  80  10  745
1477467706.742:  -4653  80  10  745
1477467706.742:  -4071  80  10  745
1477467706.742:  -3351  80  10  745
1477467706.742:  -2462  80  10  745
1477467706.742:  -1522  80  10  745
1477467706.743:   -741  80  10  745
1477467706.746:   -251  80  10  745
1477467706.748:     -1  80  10  745
1477467706.752:    177  80  10  745
1477467706.753:    397  80  10  745
1477467706.754:    623  80  10  745
1477467706.755:    743  80  10  745
1477467706.766:    715  80  10  745
1477467706.766:    619  80  10  745
1477467706.766:    578  80  10  745
1477467706.766:    641  80  10  745
1477467706.767:    756  80  10  745
1477467706.768:    845  80  10  745
1477467706.769:    883  80  10  745
1477467706.772:    897  80  10  745
1477467706.773:    914  80  10  745
1477467706.775:    924  80  10  745
1477467706.780:    907  80  10  745
1477467706.780:    870  80  10  745
1477467706.790:    846  80  10  745
1477467706.790:    865  80  10  745
1477467706.790:    919  80  10  745
1477467706.790:    968  80  10  745
1477467706.791:    976  80  10  745
1477467706.794:    938  80  10  745
1477467706.794:    884  80  10  745
1477467706.797:    855  80  10  745
1477467706.797:    858  80  10  745
1477467706.800:    867  80  10  745
1477467706.813:    848  80  10  745
1477467706.813:    802  80  10  745
1477467706.813:    763  80  10  745
1477467706.813:    768  80  10  745
1477467706.814:    809  80  10  745
1477467706.814:    844  80  10  745
1477467706.814:    836  80  10  745
1477467706.815:    790  80  10  745
1477467706.817:    738  80  10  745
1477467706.821:    710  80  10  745
1477467706.822:    716  80  10  745
1477467706.823:    741  80  10  745
1477467706.837:    765  80  10  745
1477467706.837:    770  80  10  745
1477467706.838:    756  80  10  745
1477467706.838:    738  80  10  745
1477467706.838:    736  80  10  745
1477467706.838:    750  80  10  745
1477467706.839:    758  80  10  745
1477467706.839:    736  80  10  745
1477467706.840:    692  80  10  745
1477467706.842:    657  80  10  745
1477467706.844:    646  80  10  745
1477467706.849:    640  80  10  745
1477467706.861:    620  80  10  745
1477467706.861:    595  80  10  745
1477467706.861:    593  80  10  745
1477467706.862:    616  80  10  745
1477467706.862:    629  80  10  745
1477467706.862:    605  80  10  745
1477467706.863:    563  80  10  745
1477467706.863:    550  80  10  745
1477467706.865:    575  80  10  745
1477467706.866:    599  80  10  745
1477467706.867:    571  80  10  745
1477467706.869:    496  80  10  745
1477467706.872:    428  80  10  745
1477467706.876:    416  80  10  745
1477467706.892:    449  80  10  745
1477467706.892:    476  80  10  745
1477467706.893:    458  80  10  745
1477467706.893:    413  80  10  745
1477467706.893:    385  80  10  745
1477467706.893:    398  80  10  745
1477467706.893:    426  80  10  745
1477467706.894:    428  80  10  745
1477467706.894:    393  80  10  745
1477467706.895:    352  80  10  745
1477467706.896:    345  80  10  745
1477467706.897:    371  80  10  745
1477467706.899:    395  80  10  745
1477467706.904:    391  80  10  745
1477467706.919:    365  80  10  748
1477467706.920:    345  80  10  748
1477467706.920:    341  80  10  748
1477467706.920:    341  80  10  748
1477467706.920:    333  80  10  748
1477467706.920:    321  80  10  748
1477467706.921:    316  80  10  748
1477467706.921:    309  80  10  748
1477467706.921:    283  80  10  748
1477467706.922:    237  80  10  748
1477467706.923:    196  80  10  748
1477467706.924:    185  80  10  748
1477467706.927:    195  80  10  748
1477467706.931:    188  80  10  748
1477467706.937:    140  80  10  748
1477467706.937:     67  80  10  748
1477467706.937:     13  80  10  748
1477467706.937:      3  80  10  748
1477467706.938:     19  80  10  748
1477467706.940:     16  80  10  748
1477467706.945:    -31  80  10  748
1477467706.945:    -93  80  10  748
1477467706.947:   -114  80  10  748
1477467706.948:    -59  80  10  748
1477467706.949:     38  80  10  748
1477467706.955:    112  80  10  748
1477467706.967:    123  80  10  748
1477467706.967:     99  80  10  748
1477467706.967:     90  80  10  748
1477467706.967:    111  80  10  748
1477467706.967:    128  80  10  748
1477467706.967:    102  80  10  748
1477467706.967:     33  80  10  748
1477467706.968:    -46  80  10  748
1477467706.972:   -115  80  10  748
1477467706.973:   -175  80  10  748
1477467706.974:   -229  80  10  748
1477467706.976:   -269  80  10  748
1477467706.977:   -284  80  10  748
1477467706.979:   -288  80  10  748
1477467707.014:   -309  80  10  748
1477467707.014:   -354  80  10  748
1477467707.014:   -397  80  10  748
1477467707.015:   -414  80  10  748
1477467707.015:   -407  80  10  748
1477467707.015:   -404  80  10  748
1477467707.015:   -420  80  10  748
1477467707.016:   -447  80  10  748
1477467707.016:   -468  80  10  748
1477467707.016:   -479  80  10  748
1477467707.016:   -487  80  10  748
1477467707.016:   -497  80  10  748
1477467707.016:   -504  80  10  748
1477467707.019:   -502  80  10  748
1477467707.020:   -495  80  10  748
1477467707.020:   -491  80  10  748
1477467707.020:   -490  80  10  748
1477467707.020:   -485  80  10  748
1477467707.021:   -461  80  10  748
1477467707.021:   -410  80  10  748
1477467707.021:   -335  80  10  748
1477467707.023:   -254  80  10  748
1477467707.027:   -190  80  10  748
1477467707.028:   -148  80  10  748
1477467707.038:   -115  80  10  748
1477467707.038:    -70  80  10  748
1477467707.038:    -14  80  10  748
1477467707.039:     36  80  10  748
1477467707.039:     63  80  10  748
1477467707.060:     73  80  10  748
1477467707.060:     83  80  10  748
1477467707.062:    100  80  10  748
1477467707.063:    115  80  10  748
1477467707.066:    124  80  10  748
1477467707.076:    135  80  10  748
1477467707.076:    158  80  10  748
1477467707.076:    182  80  10  748
1477467707.077:    190  80  10  748
1477467707.077:    177  80  10  748
1477467707.077:    163  80  10  748
1477467707.077:    169  80  10  748
1477467707.077:    194  80  10  748
1477467707.077:    213  80  10  748
1477467707.077:    212  80  10  748
1477467707.078:    200  80  10  748
1477467707.078:    199  80  10  748
1477467707.078:    213  80  10  748
1477467707.078:    227  80  10  748
1477467707.078:    223  80  10  748
1477467707.079:    202  80  10  748
1477467707.085:    183  80  10  748
1477467707.086:    183  80  10  748
1477467707.099:    197  80  10  748
1477467707.099:    203  80  10  748
1477467707.099:    186  80  10  748
1477467707.100:    154  80  10  748
1477467707.100:    134  80  10  748
1477467707.100:    143  80  10  748
1477467707.101:    176  80  10  748
1477467707.101:    209  80  10  748
1477467707.102:    226  80  10  748
1477467707.102:    228  80  10  748
1477467707.103:    225  80  10  748
1477467707.106:    222  80  10  748
1477467707.112:    215  80  10  748
1477467707.112:    208  80  10  748
1477467707.118:    209  80  10  748
1477467707.118:    214  80  10  748
1477467707.118:    215  80  10  748
1477467707.119:    206  80  10  748
1477467707.119:    196  80  10  748
1477467707.124:    199  80  10  748
1477467707.124:    219  80  10  748
1477467707.126:    248  80  10  748
1477467707.127:    270  80  10  748
1477467707.128:    282  80  10  748
1477467707.140:    290  80  10  748
1477467707.140:    297  80  10  748
1477467707.140:    303  80  10  748
1477467707.140:    304  80  10  748
1477467707.141:    304  80  10  748
1477467707.142:    302  80  10  748
1477467707.146:    292  80  10  748
1477467707.147:    265  80  10  748
1477467707.148:    222  80  10  748
1477467707.149:    176  80  10  748
1477467707.150:    144  80  10  748
1477467707.156:    133  80  10  748
1477467707.161:    137  80  10  748
1477467707.161:    151  80  10  748
1477467707.161:    177  80  10  748
1477467707.161:    211  80  10  748
1477467707.165:    241  80  10  748
1477467707.165:    261  80  10  748
1477467707.169:    274  80  10  748
1477467707.170:    290  80  10  748
1477467707.186:    316  80  10  748
1477467707.186:    343  80  10  748
1477467707.186:    363  80  10  748
1477467707.186:    374  80  10  748
1477467707.186:    375  80  10  748
1477467707.187:    358  80  10  748
1477467707.187:    322  80  10  748
1477467707.187:    281  80  10  748
1477467707.187:    259  80  10  748
1477467707.188:    260  80  10  748
1477467707.189:    256  80  10  748
1477467707.193:    225  80  10  748
1477467707.194:    176  80  10  748
1477467707.228:    147  80  10  748
1477467707.317:    165  80  10  748
1477467707.317:    214  80  10  748
1477467707.317:    253  80  10  748
1477467707.317:    253  80  10  748
1477467707.317:    228  80  10  748
1477467707.318:    212  80  10  748
1477467707.318:    219  80  10  748
1477467707.318:    236  80  10  748
1477467707.318:    235  80  10  748
1477467707.318:    202  80  10  748
1477467707.318:    142  80  10  748
1477467707.318:     82  80  10  748
1477467707.318:     51  80  10  748
1477467707.319:     61  80  10  748
1477467707.319:     91  80  10  748
1477467707.319:    110  80  10  748
1477467707.319:    109  80  10  748
1477467707.319:    112  80  10  748
1477467707.319:    147  80  10  748
1477467707.319:    212  80  10  748
1477467707.320:    265  80  10  748
1477467707.320:    271  80  10  748
1477467707.320:    236  80  10  748
1477467707.320:    198  80  10  748
1477467707.322:    180  80  10  748
1477467707.325:    173  80  10  748
1477467707.326:    159  80  10  748
1477467707.326:    139  80  10  748
1477467707.326:    128  80  10  748
1477467707.326:    128  80  10  748
1477467707.326:    125  80  10  748
1477467707.326:    114  80  10  748
1477467707.327:    114  80  10  748
1477467707.327:    135  80  10  748
1477467707.327:    161  80  10  748
1477467707.327:    159  80  10  748
1477467707.327:    126  80  10  748
1477467707.327:     99  80  10  748
1477467707.327:    113  80  10  748
1477467707.328:    157  80  10  748
1477467707.328:    188  80  10  748
1477467707.328:    179  80  10  748
1477467707.328:    147  80  10  748
1477467707.328:    126  80  10  748
1477467707.328:    127  80  10  748
1477467707.329:    128  80  10  748
1477467707.342:    105  80  10  748
1477467707.342:     58  80  10  748
1477467707.343:      3  80  10  748
1477467707.343:    -38  80  10  748
1477467707.343:    -57  80  10  748
1477467707.343:    -58  80  10  748
1477467707.344:    -55  80  10  748
1477467707.344:    -59  80  10  748
1477467707.344:    -73  80  10  748
1477467707.344:    -89  80  10  748
1477467707.344:   -102  80  10  748
1477467707.344:   -119  80  10  748
1477467707.345:   -155  80  10  748
1477467707.345:   -210  80  10  748
1477467707.345:   -256  80  10  748
1477467707.345:   -265  80  10  748
1477467707.345:   -230  80  10  748
1477467707.345:   -178  80  10  748
1477467707.346:   -145  80  10  748
1477467707.346:   -139  80  10  748
1477467707.346:   -141  80  10  748
1477467707.346:   -127  80  10  748
1477467707.346:    -95  80  10  748
1477467707.347:    -68  80  10  748
1477467707.347:    -65  80  10  748
1477467707.347:    -82  80  10  748
1477467707.347:   -103  80  10  748
1477467707.347:   -117  80  10  748
1477467707.347:   -123  80  10  748
1477467707.347:   -122  80  10  748
1477467707.349:   -108  80  10  748
1477467707.349:    -80  80  10  748
1477467707.351:    -48  80  10  748
1477467707.353:    -29  80  10  748
1477467707.367:    -25  80  10  748
1477467707.367:    -27  80  10  748
1477467707.367:    -22  80  10  748
1477467707.367:     -4  80  10  748
1477467707.368:     25  80  10  748
1477467707.368:     63  80  10  748
1477467707.368:    109  80  10  748
1477467707.369:    151  80  10  748
1477467707.371:    181  80  10  748
1477467707.372:    199  80  10  748
1477467707.376:    215  80  10  748
1477467707.376:    233  80  10  748
1477467707.378:    243  80  10  748
1477467707.381:    232  80  10  748
1477467707.392:    202  80  10  748
1477467707.392:    170  80  10  748
1477467707.392:    158  80  10  748
1477467707.393:    169  80  10  748
1477467707.393:    192  80  10  748
1477467707.393:    213  80  10  748
1477467707.395:    231  80  10  748
1477467707.395:    256  80  10  748
1477467707.398:    290  80  10  748
1477467707.399:    316  80  10  748
1477467707.404:    309  80  10  748
1477467707.404:    258  80  10  748
1477467707.407:    195  80  10  748
1477467707.407:    164  80  10  748
1477467707.418:    182  80  10  748
1477467707.418:    226  80  10  748
1477467707.418:    255  80  10  748
1477467707.420:    263  80  10  748
1477467707.421:    277  80  10  748
1477467707.422:    310  80  10  748
1477467707.424:    348  80  10  748
1477467707.425:    357  80  10  748
1477467707.426:    327  80  10  748
1477467707.427:    277  80  10  748
1477467707.432:    221  80  10  748
1477467707.433:    156  80  10  748
1477467707.433:     80  80  10  748
1477467707.436:     11  80  10  748
1477467707.441:    -22  80  10  748
1477467707.442:    -15  80  10  748
1477467707.442:     13  80  10  748
1477467707.445:     47  80  10  748
1477467707.445:    111  80  10  748
1477467707.448:    239  80  10  748
1477467707.449:    415  80  10  748
1477467707.451:    559  80  10  748
1477467707.454:    586  80  10  748
1477467707.455:    492  80  10  748
1477467707.459:    354  80  10  748
1477467707.459:    224  80  10  748
1477467707.473:     36  80  10  748
1477467707.473:   -351  80  10  748
1477467707.473:  -1000  80  10  748
1477467707.473:  -1815  80  10  748
1477467707.473:  -2627  80  10  748
1477467707.474:  -3356  80  10  748
1477467707.474:  -4056  80  10  748
1477467707.477:  -4771  80  10  748
1477467707.477:  -5398  80  10  748
1477467707.485:  -5738  80  10  748
1477467707.499:  -5688  80  10  748
1477467707.500:  -5338  80  10  748
1477467707.502:  -4859  80  10  748
1477467707.502:  -4313  80  10  748
1477467707.502:  -3630  80  10  748
1477467707.502:  -2755  80  10  748
1477467707.502:  -1785  80  10  748
1477467707.502:   -933  80  10  748
1477467707.503:   -340  80  10  748
1477467707.503:     22  80  10  748
1477467707.503:    280  80  10  748
1477467707.503:    513  80  10  748
1477467707.503:    696  80  10  748
1477467707.506:    766  80  10  748
1477467707.509:    719  80  10  748
1477467707.512:    627  80  10  748
1477467707.521:    576  80  10  748
1477467707.521:    601  80  10  748
1477467707.521:    674  80  10  748
1477467707.522:    751  80  10  748
1477467707.522:    811  80  10  748
1477467707.523:    863  80  10  748
1477467707.523:    912  80  10  748
1477467707.527:    945  80  10  748
1477467707.528:    945  80  10  748
1477467707.529:    912  80  10  748
1477467707.541:    873  80  10  748
1477467707.541:    855  80  10  748
1477467707.541:    871  80  10  748
1477467707.541:    905  80  10  748
1477467707.542:    931  80  10  748
1477467707.542:    927  80  10  748
1477467707.545:    889  80  10  748
1477467707.545:    840  80  10  748
1477467707.547:    817  80  10  748
1477467707.549:    835  80  10  748
1477467707.550:    871  80  10  748
1477467707.555:    887  80  10  748
1477467707.567:    870  80  10  748
1477467707.567:    846  80  10  748
1477467707.567:    849  80  10  748
1477467707.567:    875  80  10  748
1477467707.567:    881  80  10  748
1477467707.567:    837  80  10  748
1477467707.569:    763  80  10  748
1477467707.570:    703  80  10  748
1477467707.571:    684  80  10  748
1477467707.572:    694  80  10  748
1477467707.577:    702  80  10  748
1477467707.578:    701  80  10  748
1477467707.579:    702  80  10  748
1477467707.580:    711  80  10  748
1477467707.592:    720  80  10  748
1477467707.592:    720  80  10  748
1477467707.592:    712  80  10  748
1477467707.592:    698  80  10  748
1477467707.592:    682  80  10  748
1477467707.593:    669  80  10  748
1477467707.597:    668  80  10  748
1477467707.597:    680  80  10  748
1477467707.598:    692  80  10  748
1477467707.599:    688  80  10  748
1477467707.602:    670  80  10  748
1477467707.606:    655  80  10  748
1477467707.607:    661  80  10  748
1477467707.610:    673  80  10  748
1477467707.618:    665  80  10  748
1477467707.618:    627  80  10  748
1477467707.618:    580  80  10  748
1477467707.618:    552  80  10  748
1477467707.619:    544  80  10  748
1477467707.619:    538  80  10  748
1477467707.624:    517  80  10  748
1477467707.624:    486  80  10  748
1477467707.627:    465  80  10  748
1477467707.628:    459  80  10  748
1477467707.636:    460  80  10  748
1477467707.636:    459  80  10  748
1477467707.636:    456  80  10  748
1477467707.638:    457  80  10  748
1477467707.638:    457  80  10  748
1477467707.641:    449  80  10  748
1477467707.641:    429  80  10  748
1477467707.643:    410  80  10  748
1477467707.646:    406  80  10  748
1477467707.647:    414  80  10  748
1477467707.651:    419  80  10  748
1477467707.651:    409  80  10  747
1477467707.663:    387  80  10  747
1477467707.664:    364  80  10  747
1477467707.664:    346  80  10  747
1477467707.664:    328  80  10  747
1477467707.664:    309  80  10  747
1477467707.666:    291  80  10  747
1477467707.667:    284  80  10  747
1477467707.669:    288  80  10  747
1477467707.669:    295  80  10  747
1477467707.671:    296  80  10  747
1477467707.673:    285  80  10  747
1477467707.674:    264  80  10  747
1477467707.681:    243  80  10  747
1477467707.681:    223  80  10  747
1477467707.693:    195  80  10  747
1477467707.693:    150  80  10  747
1477467707.693:     93  80  10  747
1477467707.693:     44  80  10  747
1477467707.694:     20  80  10  747
1477467707.694:     19  80  10  747
1477467707.694:     19  80  10  747
1477467707.696:      3  80  10  747
1477467707.697:    -27  80  10  747
1477467707.698:    -51  80  10  747
1477467707.701:    -64  80  10  747
1477467707.702:    -75  80  10  747
1477467707.706:    -99  80  10  747
1477467707.707:   -137  80  10  747
1477467707.717:   -181  80  10  747
1477467707.717:   -226  80  10  747
1477467707.717:   -268  80  10  747
1477467707.718:   -298  80  10  747
1477467707.718:   -309  80  10  747
1477467707.720:   -304  80  10  747
1477467707.721:   -301  80  10  747
1477467707.722:   -316  80  10  747
1477467707.723:   -342  80  10  747
1477467707.727:   -359  80  10  747
1477467707.738:   -359  80  10  747
1477467707.738:   -356  80  10  747
1477467707.739:   -365  80  10  747
1477467707.739:   -381  80  10  747
1477467707.739:   -390  80  10  747
1477467707.739:   -389  80  10  747
1477467707.740:   -397  80  10  747
1477467707.742:   -426  80  10  747
1477467707.743:   -467  80  10  747
1477467707.748:   -497  80  10  747
1477467707.748:   -511  80  10  747
1477467707.749:   -526  80  10  747
1477467707.771:   -557  80  10  747
1477467707.771:   -586  80  10  747
1477467707.771:   -580  80  10  747
1477467707.771:   -525  80  10  747
1477467707.771:   -442  80  10  747
1477467707.772:   -367  80  10  747
1477467707.772:   -313  80  10  747
1477467707.772:   -266  80  10  747
1477467707.772:   -210  80  10  747
1477467707.772:   -155  80  10  747
1477467707.772:   -126  80  10  747
1477467707.773:   -127  80  10  747
1477467707.775:   -137  80  10  747
1477467707.779:   -125  80  10  747
1477467707.779:    -88  80  10  747
1477467707.781:    -53  80  10  747
1477467707.783:    -45  80  10  747
1477467707.784:    -53  80  10  747
1477467707.802:    -40  80  10  747
1477467707.803:     14  80  10  747
1477467707.803:     93  80  10  747
1477467707.803:    159  80  10  747
1477467707.803:    192  80  10  747
1477467707.803:    207  80  10  747
1477467707.804:    230  80  10  747
1477467707.804:    268  80  10  747
1477467707.804:    307  80  10  747
1477467707.808:    328  80  10  747
1477467707.808:    332  80  10  747
1477467707.809:    332  80  10  747
1477467707.809:    341  80  10  747
1477467707.816:    359  80  10  747
1477467707.824:    376  80  10  747
1477467707.824:    377  80  10  747
1477467707.824:    357  80  10  747
1477467707.824:    333  80  10  747
1477467707.824:    324  80  10  747
1477467707.824:    332  80  10  747
1477467707.830:    333  80  10  747
1477467707.831:    306  80  10  747
1477467707.831:    262  80  10  747
1477467707.832:    242  80  10  747
1477467707.835:    266  80  10  747
1477467707.836:    308  80  10  747
1477467707.837:    322  80  10  747
1477467707.844:    293  80  10  747
1477467707.854:    255  80  10  747
1477467707.855:    245  80  10  747
1477467707.856:    264  80  10  747
1477467707.858:    280  80  10  747
1477467707.859:    273  80  10  747
1477467707.860:    254  80  10  747
1477467707.861:    247  80  10  747
1477467707.862:    258  80  10  747
1477467707.875:    268  80  10  747
1477467707.876:    266  80  10  747
1477467707.876:    260  80  10  747
1477467707.877:    264  80  10  747
1477467707.877:    282  80  10  747
1477467707.878:    300  80  10  747
1477467707.878:    303  80  10  747
1477467707.878:    289  80  10  747
1477467707.878:    271  80  10  747
1477467707.879:    263  80  10  747
1477467707.879:    265  80  10  747
1477467707.879:    260  80  10  747
1477467707.881:    233  80  10  747
1477467707.883:    187  80  10  747
1477467707.896:    152  80  10  747
1477467707.896:    151  80  10  747
1477467707.896:    174  80  10  747
1477467707.897:    185  80  10  747
1477467707.897:    161  80  10  747
1477467707.899:    120  80  10  747
1477467707.899:    102  80  10  747
1477467707.899:    123  80  10  747
1477467707.901:    167  80  10  747
1477467707.903:    205  80  10  747
1477467707.904:    231  80  10  747
1477467707.907:    255  80  10  747
1477467707.915:    288  80  10  747
1477467707.915:    330  80  10  747
1477467707.916:    377  80  10  747
1477467707.917:    422  80  10  747
1477467707.917:    449  80  10  747
1477467707.918:    442  80  10  747
1477467707.920:    408  80  10  747
1477467707.926:    377  80  10  747
1477467707.936:    375  80  10  747
1477467707.936:    386  80  10  747
1477467707.936:    371  80  10  747
1477467707.937:    316  80  10  747
1477467707.937:    255  80  10  747
1477467707.937:    230  80  10  747
1477467707.937:    240  80  10  747
1477467707.938:    241  80  10  747
1477467707.940:    204  80  10  747
1477467707.944:    150  80  10  747
1477467707.944:    117  80  10  747
1477467707.945:    113  80  10  747
1477467707.955:    111  80  10  747
1477467708.009:     95  80  10  747
1477467708.010:     87  80  10  747
1477467708.010:    115  80  10  747
1477467708.010:    176  80  10  747
1477467708.010:    235  80  10  747
1477467708.010:    268  80  10  747
1477467708.010:    284  80  10  747
1477467708.027:    302  80  10  747
1477467708.027:    322  80  10  747
1477467708.027:    328  80  10  747
1477467708.027:    313  80  10  747
1477467708.027:    293  80  10  747
1477467708.028:    281  80  10  747
1477467708.028:    276  80  10  747
1477467708.028:    267  80  10  747
1477467708.028:    250  80  10  747
1477467708.028:    232  80  10  747
1477467708.028:    218  80  10  747
1477467708.029:    203  80  10  747
1477467708.029:    181  80  10  747
1477467708.029:    155  80  10  747
1477467708.029:    132  80  10  747
1477467708.029:    117  80  10  747
1477467708.030:    114  80  10  747
1477467708.030:    128  80  10  747
1477467708.030:    163  80  10  747
1477467708.031:    203  80  10  747
1477467708.031:    222  80  10  747
1477467708.032:    204  80  10  747
1477467708.032:    162  80  10  747
1477467708.032:    125  80  10  747
1477467708.032:    108  80  10  747
1477467708.033:     99  80  10  747
1477467708.033:     82  80  10  747
1477467708.034:     55  80  10  747
1477467708.034:     34  80  10  747
1477467708.034:     27  80  10  747
1477467708.035:     25  80  10  747
1477467708.035:     15  80  10  747
1477467708.035:      4  80  10  747
1477467708.036:      8  80  10  747
1477467708.047:     26  80  10  747
1477467708.047:     42  80  10  747
1477467708.047:     42  80  10  747
1477467708.047:     26  80  10  747
1477467708.048:     11  80  10  747
1477467708.048:      2  80  10  747
1477467708.048:    -10  80  10  747
1477467708.048:    -31  80  10  747
1477467708.048:    -59  80  10  747
1477467708.048:    -84  80  10  747
1477467708.050:   -106  80  10  747
1477467708.055:   -129  80  10  747
1477467708.055:   -153  80  10  747
1477467708.057:   -166  80  10  747
1477467708.058:   -163  80  10  747
1477467708.059:   -150  80  10  747
1477467708.062:   -139  80  10  747
1477467708.064:   -128  80  10  747
1477467708.085:   -108  80  10  747
1477467708.085:    -80  80  10  747
1477467708.085:    -57  80  10  747
1477467708.086:    -53  80  10  747
1477467708.086:    -70  80  10  747
1477467708.087:    -94  80  10  747
1477467708.087:   -110  80  10  747
1477467708.087:   -114  80  10  747
1477467708.087:   -111  80  10  747
1477467708.087:   -114  80  10  747
1477467708.087:   -129  80  10  747
1477467708.088:   -148  80  10  747
1477467708.089:   -155  80  10  747
1477467708.091:   -136  80  10  747
1477467708.095:   -106  80  10  747
1477467708.095:    -92  80  10  747
1477467708.098:   -108  80  10  747
1477467708.099:   -135  80  10  747
1477467708.119:   -145  80  10  747
1477467708.119:   -127  80  10  747
1477467708.119:    -95  80  10  747
1477467708.119:    -58  80  10  747
1477467708.120:     -8  80  10  747
1477467708.120:     64  80  10  747
1477467708.120:    140  80  10  747
1477467708.120:    188  80  10  747
1477467708.121:    199  80  10  747
1477467708.121:    198  80  10  747
1477467708.124:    213  80  10  747
1477467708.124:    239  80  10  747
1477467708.125:    252  80  10  747
1477467708.128:    242  80  10  747
1477467708.128:    223  80  10  747
1477467708.131:    213  80  10  747
1477467708.149:    216  80  10  747
1477467708.149:    230  80  10  747
1477467708.149:    258  80  10  747
1477467708.149:    306  80  10  747
1477467708.149:    355  80  10  747
1477467708.149:    373  80  10  747
1477467708.150:    348  80  10  747
1477467708.150:    309  80  10  747
1477467708.150:    293  80  10  747
1477467708.150:    299  80  10  747
1477467708.155:    287  80  10  747
1477467708.155:    232  80  10  747
1477467708.157:    161  80  10  747
1477467708.159:    131  80  10  747
1477467708.160:    158  80  10  747
1477467708.164:    199  80  10  747
1477467708.180:    201  80  10  747
1477467708.181:    166  80  10  747
1477467708.181:    146  80  10  747
1477467708.181:    177  80  10  747
1477467708.181:    235  80  10  747
1477467708.182:    262  80  10  747
1477467708.182:    228  80  10  747
1477467708.182:    160  80  10  747
1477467708.182:    102  80  10  747
1477467708.182:     79  80  10  747
1477467708.186:     83  80  10  747
1477467708.186:    109  80  10  747
1477467708.188:    177  80  10  747
1477467708.189:    301  80  10  747
1477467708.190:    452  80  10  747
1477467708.196:    556  80  10  747
1477467708.203:    570  80  10  747
1477467708.203:    523  80  10  747
1477467708.203:    476  80  10  747
1477467708.203:    417  80  10  747
1477467708.236:    230  80  10  747
1477467708.236:   -204  80  10  747
1477467708.246:   -870  80  10  747
1477467708.246:  -1614  80  10  747
1477467708.246:  -2293  80  10  747
1477467708.248:  -2901  80  10  747
1477467708.248:  -3518  80  10  747
1477467708.249:  -4143  80  10  747
1477467708.249:  -4630  80  10  747
1477467708.250:  -4814  80  10  747
1477467708.250:  -4673  80  10  747
1477467708.251:  -4328  80  10  747
1477467708.251:  -3895  80  10  747
1477467708.252:  -3375  80  10  747
1477467708.265:  -2718  80  10  747
1477467708.265:  -1946  80  10  747
1477467708.265:  -1178  80  10  747
1477467708.266:   -545  80  10  747
1477467708.266:    -98  80  10  747
1477467708.267:    192  80  10  747
1477467708.267:    374  80  10  747
1477467708.267:    481  80  10  747
1477467708.267:    543  80  10  747
1477467708.267:    576  80  10  747
1477467708.268:    576  80  10  747
1477467708.268:    537  80  10  747
1477467708.268:    478  80  10  747
1477467708.268:    457  80  10  747
1477467708.269:    516  80  10  747
1477467708.270:    635  80  10  747
1477467708.271:    744  80  10  747
1477467708.271:    786  80  10  747
1477467708.271:    766  80  10  747
1477467708.271:    730  80  10  747
1477467708.272:    711  80  10  747
1477467708.272:    713  80  10  747
1477467708.276:    720  80  10  747
1477467708.277:    714  80  10  747
1477467708.287:    701  80  10  747
1477467708.287:    695  80  10  747
1477467708.287:    706  80  10  747
1477467708.287:    723  80  10  747
1477467708.288:    721  80  10  747
1477467708.288:    686  80  10  747
1477467708.292:    636  80  10  747
1477467708.292:    604  80  10  747
1477467708.296:    608  80  10  747
1477467708.296:    627  80  10  747
1477467708.310:    629  80  10  747
1477467708.310:    612  80  10  747
1477467708.310:    594  80  10  747
1477467708.310:    590  80  10  747
1477467708.311:    592  80  10  747
1477467708.316:    581  80  10  747
1477467708.316:    557  80  10  747
1477467708.317:    536  80  10  747
1477467708.317:    523  80  10  747
1477467708.317:    503  80  10  747
1477467708.319:    469  80  10  747
1477467708.322:    440  80  10  747
1477467708.324:    443  80  10  747
1477467708.324:    480  80  10  747
1477467708.326:    517  80  10  747
1477467708.327:    523  80  10  747
1477467708.328:    501  80  10  747
1477467708.331:    482  80  10  747
1477467708.333:    494  80  10  747
1477467708.337:    530  80  10  747
1477467708.347:    563  80  10  747
1477467708.347:    574  80  10  747
1477467708.347:    558  80  10  747
1477467708.348:    529  80  10  747
1477467708.348:    494  80  10  747
1477467708.348:    462  80  10  747
1477467708.352:    440  80  10  747
1477467708.353:    436  80  10  747
1477467708.353:    445  80  10  747
1477467708.354:    451  80  10  747
1477467708.357:    445  80  10  747
1477467708.358:    436  80  10  747
1477467708.366:    443  80  10  747
1477467708.366:    468  80  10  747
1477467708.366:    491  80  10  747
1477467708.367:    493  80  10  747
1477467708.370:    478  80  10  747
1477467708.370:    464  80  10  747
1477467708.374:    459  80  10  747
1477467708.375:    450  80  10  747
1477467708.383:    429  80  10  747
1477467708.384:    403  80  10  747
1477467708.384:    388  80  10  747
1477467708.384:    384  80  10  747
1477467708.384:    374  80  10  747
1477467708.386:    350  80  10  747
1477467708.388:    321  80  10  747
1477467708.393:    307  80  10  747
1477467708.401:    313  80  10  747
1477467708.401:    331  80  10  747
1477467708.402:    351  80  10  747
1477467708.402:    364  80  10  747
1477467708.402:    363  80  10  747
1477467708.402:    349  80  10  747
1477467708.406:    332  80  10  747
1477467708.407:    321  80  10  747
1477467708.408:    316  80  10  747
1477467708.410:    299  80  10  747
1477467708.413:    260  80  10  747
1477467708.415:    206  80  10  747
1477467708.420:    162  80  10  747
1477467708.421:    143  80  10  747
1477467708.422:    140  80  10  747
1477467708.424:    130  80  10  747
1477467708.424:     96  80  10  747
1477467708.425:     48  80  10  747
1477467708.427:      9  80  10  747
1477467708.429:     -4  80  10  747
1477467708.434:      3  80  10  747
1477467708.434:      4  80  10  747
1477467708.437:    -24  80  10  747
1477467708.438:    -75  80  10  747
1477467708.451:   -120  80  10  747
1477467708.451:   -140  80  10  747
1477467708.451:   -145  80  10  747
1477467708.451:   -160  80  10  747
1477467708.451:   -196  80  10  747
1477467708.451:   -233  80  10  747
1477467708.452:   -250  80  10  747
1477467708.453:   -252  80  10  747
1477467708.455:   -261  80  10  747
1477467708.457:   -293  80  10  747
1477467708.461:   -336  80  10  747
1477467708.461:   -369  80  10  747
1477467708.470:   -384  80  10  747
1477467708.470:   -393  80  10  747
1477467708.471:   -410  80  10  747
1477467708.471:   -436  80  10  747
1477467708.471:   -467  80  10  747
1477467708.475:   -500  80  10  747
1477467708.475:   -530  80  10  747
1477467708.477:   -548  80  10  747
1477467708.478:   -548  80  10  747
1477467708.481:   -539  80  10  747
1477467708.482:   -550  80  10  747
1477467708.485:   -591  80  10  747
1477467708.492:   -640  80  10  747
1477467708.492:   -658  80  10  747
1477467708.492:   -633  80  10  747
1477467708.492:   -595  80  10  747
1477467708.494:   -587  80  10  747
1477467708.496:   -613  80  10  747
1477467708.498:   -634  80  10  747
1477467708.503:   -620  80  10  747
1477467708.510:   -583  80  10  747
1477467708.510:   -562  80  10  747
1477467708.511:   -566  80  10  747
1477467708.511:   -567  80  10  747
1477467708.511:   -546  80  10  747
1477467708.513:   -515  80  10  747
1477467708.517:   -502  80  10  747
1477467708.517:   -496  80  10  747
1477467708.520:   -452  80  10  747
1477467708.520:   -348  80  10  747
1477467708.529:   -217  80  10  747
1477467708.529:   -113  80  10  747
1477467708.530:    -51  80  10  747
1477467708.532:      6  80  10  747
1477467708.532:     90  80  10  747
1477467708.533:    197  80  10  747
1477467708.535:    285  80  10  747
1477467708.535:    324  80  10  747
1477467708.538:    311  80  10  747
1477467708.540:    265  80  10  747
1477467708.569:    209  80  10  747
1477467708.569:    174  80  10  747
1477467708.584:    175  80  10  747
1477467708.584:    202  80  10  747
1477467708.584:    232  80  10  747
1477467708.584:    255  80  10  747
1477467708.584:    284  80  10  747
1477467708.584:    336  80  10  747
1477467708.585:    397  80  10  747
1477467708.585:    433  80  10  747
1477467708.585:    426  80  10  747
1477467708.585:    389  80  10  747
1477467708.585:    343  80  10  747
1477467708.585:    293  80  10  747
1477467708.586:    233  80  10  747
1477467708.586:    170  80  10  747
1477467708.586:    138  80  10  747
1477467708.586:    158  80  10  747
1477467708.586:    214  80  10  747
1477467708.587:    275  80  10  747
1477467708.587:    327  80  10  747
1477467708.588:    380  80  10  747
1477467708.589:    438  80  10  747
1477467708.590:    482  80  10  747
1477467708.591:    490  80  10  747
1477467708.591:    468  80  10  747
1477467708.593:    441  80  10  747
1477467708.594:    419  80  10  747
1477467708.599:    392  80  10  747
1477467708.599:    352  80  10  747
1477467708.601:    314  80  10  747
1477467708.603:    302  80  10  747
1477467708.604:    317  80  10  747
1477467708.606:    333  80  10  747
1477467708.608:    330  80  10  747
1477467708.612:    314  80  10  747
1477467708.620:    308  80  10  747
1477467708.621:    314  80  10  747
1477467708.621:    315  80  10  747
1477467708.621:    300  80  10  747
1477467708.625:    282  80  10  747
1477467708.625:    277  80  10  747
1477467708.626:    284  80  10  747
1477467708.626:    288  80  10  747
1477467708.628:    282  80  10  747
1477467708.629:    278  80  10  747
1477467708.641:    288  80  10  747
1477467708.642:    303  80  10  747
1477467708.643:    303  80  10  747
1477467708.644:    286  80  10  747
1477467708.645:    271  80  10  747
1477467708.645:    278  80  10  747
1477467708.646:    297  80  10  747
1477467708.646:    300  80  10  747
1477467708.647:    278  80  10  747
1477467708.654:    248  80  10  747
1477467708.664:    240  80  10  747
1477467708.665:    258  80  10  747
1477467708.665:    279  80  10  747
1477467708.666:    279  80  10  747
1477467708.666:    252  80  10  747
1477467708.667:    218  80  10  747
1477467708.670:    198  80  10  747
1477467708.670:    199  80  10  747
1477467708.671:    210  80  10  747
1477467708.671:    213  80  10  747
1477467708.672:    196  80  10  747
1477467708.672:    166  80  10  747
1477467708.686:    143  80  10  747
1477467708.687:    143  80  10  747
1477467708.688:    155  80  10  747
1477467708.688:    154  80  10  747
1477467708.689:    124  80  10  747
1477467708.689:     84  80  10  747
1477467708.690:     64  80  10  747
1477467708.691:     71  80  10  747
1477467708.691:     85  80  10  747
1477467708.695:     86  80  10  747
1477467708.707:     79  80  10  747
1477467708.758:     84  80  10  747
1477467708.772:    103  80  10  747
1477467708.772:    111  80  10  747
1477467708.772:     91  80  10  747
1477467708.772:     53  80  10  747
1477467708.773:     28  80  10  747
1477467708.773:     23  80  10  747
1477467708.773:     19  80  10  747
1477467708.773:     -5  80  10  747
1477467708.773:    -34  80  10  747
1477467708.773:    -33  80  10  747
1477467708.773:     13  80  10  747
1477467708.773:     71  80  10  747
1477467708.774:     93  80  10  747
1477467708.774:     61  80  10  747
1477467708.774:     10  80  10  747
1477467708.774:    -24  80  10  747
1477467708.774:    -38  80  10  747
1477467708.774:    -57  80  10  747
1477467708.775:    -92  80  10  747
1477467708.775:   -111  80  10  747
1477467708.775:    -77  80  10  747
1477467708.775:     -2  80  10  747
1477467708.775:     60  80  10  747
1477467708.775:     75  80  10  747
1477467708.775:     71  80  10  747
1477467708.776:    110  80  10  747
1477467708.776:    206  80  10  747
1477467708.776:    300  80  10  747
1477467708.776:    321  80  10  747
1477467708.776:    264  80  10  747
1477467708.776:    197  80  10  747
1477467708.777:    189  80  10  747
1477467708.777:    237  80  10  747
1477467708.777:    278  80  10  747
1477467708.777:    263  80  10  747
1477467708.777:    204  80  10  747
1477467708.778:    147  80  10  747
1477467708.778:    116  80  10  747
1477467708.778:     95  80  10  747
1477467708.778:     60  80  10  747
1477467708.778:     17  80  10  747
1477467708.778:    -12  80  10  747
1477467708.785:    -18  80  10  747
1477467708.785:    -24  80  10  747
1477467708.786:    -53  80  10  747
1477467708.787:    -93  80  10  747
1477467708.797:   -109  80  10  747
1477467708.798:    -82  80  10  747
1477467708.798:    -30  80  10  747
1477467708.798:      3  80  10  747
1477467708.798:    -15  80  10  747
1477467708.799:    -78  80  10  747
1477467708.801:   -142  80  10  747
1477467708.805:   -165  80  10  747
1477467708.805:   -142  80  10  747
1477467708.807:   -101  80  10  747
1477467708.817:    -79  80  10  747
1477467708.817:    -90  80  10  747
1477467708.818:   -111  80  10  747
1477467708.821:   -112  80  10  747
1477467708.821:    -93  80  10  747
1477467708.821:    -72  80  10  747
1477467708.821:    -70  80  10  747
1477467708.824:    -86  80  10  747
1477467708.824:   -110  80  10  747
1477467708.826:   -134  80  10  747
1477467708.834:   -155  80  10  747
1477467708.835:   -155  80  10  747
1477467708.835:   -124  80  10  747
1477467708.835:    -74  80  10  747
1477467708.838:    -43  80  10  747
1477467708.838:    -53  80  10  747
1477467708.839:    -84  80  10  747
1477467708.843:    -98  80  10  747
1477467708.847:    -78  80  10  747
1477467708.847:    -48  80  10  747
1477467708.850:    -39  80  10  747
1477467708.852:    -49  80  10  747
1477467708.854:    -50  80  10  747
1477467708.854:    -19  80  10  747
1477467708.856:     35  80  10  747
1477467708.858:     88  80  10  747
1477467708.862:    125  80  10  747
1477467708.864:    145  80  10  747
1477467708.866:    158  80  10  747
1477467708.866:    174  80  10  747
1477467708.888:    192  80  10  747
1477467708.889:    203  80  10  747
1477467708.889:    195  80  10  747
1477467708.889:    170  80  10  747
1477467708.889:    147  80  10  747
1477467708.889:    144  80  10  747
1477467708.890:    160  80  10  747
1477467708.890:    178  80  10  747
1477467708.890:    183  80  10  747
1477467708.891:    176  80  10  747
1477467708.891:    167  80  10  747
1477467708.891:    155  80  10  747
1477467708.893:    138  80  10  747
1477467708.893:    124  80  10  747
1477467708.895:    126  80  10  747
1477467708.897:    140  80  10  747
1477467708.911:    144  80  10  747
1477467708.912:    124  80  10  747
1477467708.913:     97  80  10  747
1477467708.913:     94  80  10  747
1477467708.914:    123  80  10  747
1477467708.916:    156  80  10  747
1477467708.917:    161  80  10  747
1477467708.917:    137  80  10  747
1477467708.929:    112  80  10  747
1477467708.929:    103  80  10  747
1477467708.930:     99  80  10  747
1477467708.930:     70  80  10  747
1477467708.930:      9  80  10  747
1477467708.930:    -61  80  10  747
1477467708.930:   -112  80  10  747
1477467708.930:   -135  80  10  747
1477467708.931:   -141  80  10  747
1477467708.933:   -136  80  10  747
1477467708.934:    -99  80  10  747
1477467708.937:     -3  80  10  747
1477467708.939:    147  80  10  747
1477467708.940:    288  80  10  747
1477467708.950:    352  80  10  747
1477467708.950:    331  80  10  747
1477467708.950:    278  80  10  747
1477467708.950:    223  80  10  747
1477467708.950:     90  80  10  747
1477467708.952:   -251  80  10  747
1477467708.954:   -845  80  10  747
1477467708.957:  -1585  80  10  747
1477467708.957:  -2312  80  10  747
1477467708.962:  -2968  80  10  747
1477467708.974:  -3613  80  10  747
1477467708.974:  -4283  80  10  747
1477467708.975:  -4872  80  10  747
1477467708.975:  -5188  80  10  747
1477467708.975:  -5136  80  10  747
1477467708.976:  -4803  80  10  747
1477467708.976:  -4348  80  10  747
1477467708.976:  -3847  80  10  747
1477467708.978:  -3255  80  10  747
1477467708.980:  -2524  80  10  747
1477467708.981:  -1722  80  10  747
1477467708.986:  -1000  80  10  747
1477467708.986:   -476  80  10  747
1477467708.990:   -142  80  10  747
1477467708.999:     95  80  10  747
1477467708.999:    309  80  10  747
1477467708.999:    502  80  10  747
1477467709.000:    632  80  10  747
1477467709.002:    682  80  10  747
1477467709.002:    682  80  10  747
1477467709.005:    685  80  10  747
1477467709.005:    716  80  10  747
1477467709.005:    769  80  10  747
1477467709.007:    821  80  10  747
1477467709.008:    855  80  10  747
1477467709.011:    870  80  10  747
1477467709.022:    869  80  10  747
1477467709.022:    861  80  10  747
1477467709.023:    853  80  10  747
1477467709.024:    850  80  10  747
1477467709.025:    851  80  10  747
1477467709.025:    849  80  10  747
1477467709.026:    846  80  10  747
1477467709.026:    845  80  10  747
1477467709.031:    847  80  10  747
1477467709.031:    837  80  10  747
1477467709.033:    805  80  10  747
1477467709.033:    758  80  10  747
1477467709.054:    723  80  10  747
1477467709.055:    719  80  10  747
1477467709.055:    736  80  10  747
1477467709.055:    749  80  10  747
1477467709.056:    743  80  10  747
1477467709.056:    726  80  10  747
1477467709.056:    712  80  10  747
1477467709.056:    703  80  10  747
1477467709.057:    688  80  10  747
1477467709.057:    661  80  10  747
1477467709.058:    628  80  10  747
1477467709.058:    604  80  10  747
1477467709.059:    594  80  10  747
1477467709.062:    591  80  10  747
1477467709.074:    582  80  10  747
1477467709.074:    566  80  10  747
1477467709.074:    553  80  10  747
1477467709.075:    546  80  10  747
1477467709.076:    541  80  10  747
1477467709.077:    528  80  10  747
1477467709.077:    511  80  10  747
1477467709.077:    503  80  10  747
1477467709.080:    504  80  10  747
1477467709.081:    497  80  10  747
1477467709.085:    463  80  10  747
1477467709.085:    410  80  10  747
1477467709.092:    364  80  10  747
1477467709.092:    332  80  10  747
1477467709.093:    296  80  10  747
1477467709.093:    231  80  10  747
1477467709.095:    141  80  10  747
1477467709.099:     63  80  10  747
1477467709.112:     27  80  10  747
1477467709.113:     26  80  10  747
1477467709.113:     21  80  10  747
1477467709.117:    -16  80  10  747
1477467709.117:    -77  80  10  747
1477467709.118:   -125  80  10  747
1477467709.118:   -132  80  10  747
1477467709.118:   -104  80  10  747
1477467709.118:    -76  80  10  747
1477467709.118:    -76  80  10  747
1477467709.119:   -107  80  10  747
1477467709.121:   -139  80  10  747
1477467709.123:   -148  80  10  747
1477467709.128:   -136  80  10  747
1477467709.136:   -123  80  10  747
1477467709.136:   -129  80  10  747
1477467709.136:   -147  80  10  747
1477467709.136:   -165  80  10  747
1477467709.136:   -173  80  10  747
1477467709.136:   -170  80  10  747
1477467709.146:   -159  80  10  747
1477467709.146:   -146  80  10  747
1477467709.148:   -142  80  10  747
1477467709.150:   -154  80  10  748
1477467709.151:   -174  80  10  748
1477467709.152:   -186  80  10  748
1477467709.153:   -186  80  10  748
1477467709.155:   -184  80  10  748
1477467709.171:   -188  80  10  748
1477467709.172:   -193  80  10  748
1477467709.173:   -186  80  10  748
1477467709.173:   -174  80  10  748
1477467709.174:   -173  80  10  748
1477467709.175:   -193  80  10  748
1477467709.176:   -219  80  10  748
1477467709.176:   -230  80  10  748
1477467709.177:   -226  80  10  748
1477467709.178:   -225  80  10  748
1477467709.178:   -238  80  10  748
1477467709.178:   -260  80  10  748
1477467709.178:   -282  80  10  748
1477467709.182:   -303  80  10  748
1477467709.190:   -330  80  10  748
1477467709.191:   -365  80  10  748
1477467709.191:   -401  80  10  748
1477467709.192:   -431  80  10  748
1477467709.193:   -453  80  10  748
1477467709.193:   -469  80  10  748
1477467709.197:   -477  80  10  748
1477467709.197:   -484  80  10  748
1477467709.198:   -501  80  10  748
1477467709.199:   -540  80  10  748
1477467709.210:   -590  80  10  748
1477467709.210:   -630  80  10  748
1477467709.212:   -645  80  10  748
1477467709.212:   -639  80  10  748
1477467709.241:   -639  80  10  748
1477467709.244:   -667  80  10  748
1477467709.247:   -717  80  10  748
1477467709.248:   -760  80  10  748
1477467709.248:   -769  80  10  748
1477467709.249:   -745  80  10  748
1477467709.250:   -717  80  10  748
1477467709.255:   -718  80  10  748
1477467709.264:   -755  80  10  748
1477467709.264:   -804  80  10  748
1477467709.264:   -833  80  10  748
1477467709.264:   -825  80  10  748
1477467709.265:   -793  80  10  748
1477467709.265:   -769  80  10  748
1477467709.265:   -782  80  10  748
1477467709.265:   -832  80  10  748
1477467709.265:   -886  80  10  748
1477467709.265:   -905  80  10  748
1477467709.265:   -881  80  10  748
1477467709.266:   -844  80  10  748
1477467709.266:   -830  80  10  748
1477467709.266:   -841  80  10  748
1477467709.266:   -847  80  10  748
1477467709.266:   -821  80  10  748
1477467709.266:   -765  80  10  748
1477467709.266:   -706  80  10  748
1477467709.267:   -659  80  10  748
1477467709.267:   -622  80  10  748
1477467709.267:   -582  80  10  748
1477467709.267:   -538  80  10  748
1477467709.270:   -497  80  10  748
1477467709.270:   -462  80  10  748
1477467709.273:   -425  80  10  748
1477467709.274:   -383  80  10  748
1477467709.280:   -340  80  10  748
1477467709.280:   -308  80  10  748
1477467709.280:   -289  80  10  748
1477467709.281:   -278  80  10  748
1477467709.291:   -260  80  10  748
1477467709.291:   -230  80  10  748
1477467709.291:   -197  80  10  748
1477467709.291:   -179  80  10  748
1477467709.292:   -178  80  10  748
1477467709.294:   -183  80  10  748
1477467709.295:   -174  80  10  748
1477467709.298:   -147  80  10  748
1477467709.300:   -110  80  10  748
1477467709.302:    -74  80  10  748
1477467709.311:    -48  80  10  748
1477467709.311:    -32  80  10  748
1477467709.311:    -31  80  10  748
1477467709.312:    -42  80  10  748
1477467709.312:    -55  80  10  748
1477467709.315:    -54  80  10  748
1477467709.315:    -38  80  10  748
1477467709.321:    -21  80  10  748
1477467709.331:    -20  80  10  748
1477467709.331:    -35  80  10  748
1477467709.332:    -50  80  10  748
1477467709.332:    -54  80  10  748
1477467709.332:    -52  80  10  748
1477467709.332:    -56  80  10  748
1477467709.336:    -70  80  10  748
1477467709.336:    -92  80  10  748
1477467709.336:   -113  80  10  748
1477467709.336:   -123  80  10  748
1477467709.343:   -109  80  10  748
1477467709.345:    -70  80  10  748
1477467709.351:    -24  80  10  748
1477467709.353:      4  80  10  748
1477467709.354:     10  80  10  748
1477467709.354:     13  80  10  748
1477467709.356:     26  80  10  748
1477467709.357:     43  80  10  748
1477467709.358:     44  80  10  748
1477467709.358:     33  80  10  748
1477467709.369:     30  80  10  748
1477467709.369:     47  80  10  748
1477467709.369:     64  80  10  748
1477467709.369:     53  80  10  748
1477467709.370:     27  80  10  748
1477467709.370:     29  80  10  748
1477467709.372:     81  80  10  748
1477467709.373:    152  80  10  748
1477467709.374:    180  80  10  748
1477467709.379:    148  80  10  748
1477467709.379:     96  80  10  748
1477467709.384:     73  80  10  748
1477467709.384:     84  80  10  748
1477467709.385:     92  80  10  748
1477467709.386:     62  80  10  748
1477467709.388:      7  80  10  748
1477467709.390:    -40  80  10  748
1477467709.391:    -60  80  10  748
1477467709.394:    -62  80  10  748
1477467709.396:    -61  80  10  748
1477467709.411:    -53  80  10  748
1477467709.411:    -28  80  10  748
1477467709.411:      4  80  10  748
1477467709.411:     21  80  10  748
1477467709.412:     14  80  10  748
1477467709.412:      3  80  10  748
1477467709.412:     12  80  10  748
1477467709.412:     43  80  10  748
1477467709.416:     72  80  10  748
1477467709.416:     78  80  10  748
1477467709.419:     67  80  10  748
1477467709.420:     58  80  10  748
1477467709.429:     54  80  10  748
1477467709.429:     39  80  10  748
1477467709.429:      7  80  10  748
1477467709.430:    -18  80  10  748
1477467709.430:    -13  80  10  748
1477467709.431:     12  80  10  748
1477467709.432:     17  80  10  748
1477467709.438:    -26  80  10  748
1477467709.449:    -95  80  10  748
1477467709.449:   -140  80  10  748
1477467709.449:   -138  80  10  748
1477467709.449:   -120  80  10  748
1477467709.538:   -125  80  10  748
1477467709.538:   -157  80  10  748
1477467709.538:   -177  80  10  748
1477467709.538:   -155  80  10  748
1477467709.538:    -99  80  10  748
1477467709.538:    -43  80  10  748
1477467709.539:     -7  80  10  748
1477467709.539:     16  80  10  748
1477467709.539:     40  80  10  748
1477467709.539:     57  80  10  748
1477467709.539:     53  80  10  748
1477467709.539:     29  80  10  748
1477467709.539:      3  80  10  748
1477467709.540:    -13  80  10  748
1477467709.540:    -26  80  10  748
1477467709.540:    -51  80  10  748
1477467709.540:    -80  80  10  748
1477467709.540:    -99  80  10  748
1477467709.540:    -94  80  10  748
1477467709.540:    -80  80  10  748
1477467709.541:    -79  80  10  748
1477467709.541:    -92  80  10  748
1477467709.541:   -105  80  10  748
1477467709.541:   -101  80  10  748
1477467709.541:    -87  80  10  748
1477467709.541:    -81  80  10  748
1477467709.541:    -90  80  10  748
1477467709.542:   -102  80  10  748
1477467709.542:   -105  80  10  748
1477467709.542:   -106  80  10  748
1477467709.543:   -119  80  10  748
1477467709.543:   -146  80  10  748
1477467709.543:   -170  80  10  748
1477467709.543:   -181  80  10  748
1477467709.543:   -181  80  10  748
1477467709.543:   -183  80  10  748
1477467709.543:   -189  80  10  748
1477467709.544:   -192  80  10  748
1477467709.544:   -187  80  10  748
1477467709.544:   -183  80  10  748
1477467709.544:   -187  80  10  748
1477467709.544:   -192  80  10  748
1477467709.544:   -181  80  10  748
1477467709.545:   -155  80  10  748
1477467709.545:   -134  80  10  748
1477467709.545:   -138  80  10  748
1477467709.545:   -160  80  10  748
1477467709.545:   -176  80  10  748
1477467709.546:   -170  80  10  748
1477467709.546:   -147  80  10  748
1477467709.546:   -132  80  10  748
1477467709.546:   -141  80  10  748
1477467709.547:   -171  80  10  748
