timestamp: ADC HeartRate4sAverage HeartRate30sAverage HRV8sAverage
1477473645.697:   -709  69   9  792
1477473645.697:   -765  69   9  792
1477473645.709:   -819  69   9  792
1477473645.710:   -899  69   9  792
1477473645.710:   -997  69   9  792
1477473645.710:  -1079  69   9  792
1477473645.710:  -1120  69   9  792
1477473645.710:  -1130  69   9  792
1477473645.711:  -1134  69   9  792
1477473645.711:  -1143  69   9  792
1477473645.711:  -1146  69   9  792
1477473645.711:  -1124  69   9  792
1477473645.712:  -1091  69   9  792
1477473645.712:  -1109  69   9  792
1477473645.712:  -1258  69   9  792
1477473645.713:  -1602  69   9  792
1477473645.713:  -2139  69   9  792
1477473645.713:  -2791  69   9  792
1477473645.713:  -3447  69   9  792
1477473645.713:  -4017  69   9  792
1477473645.714:  -4461  69   9  792
1477473645.714:  -4766  69   9  792
1477473645.714:  -4900  69   9  792
1477473645.714:  -4819  69   9  792
1477473645.719:  -4502  69   9  792
1477473645.721:  -3980  69   9  792
1477473645.723:  -3313  69   9  792
1477473645.725:  -2550  69   9  792
1477473645.726:  -1737  69   9  792
1477473645.729:   -949  69   9  792
1477473645.740:   -295  69   9  792
1477473645.740:    145  69   9  792
1477473645.741:    385  69   9  792
1477473645.742:    515  69   9  792
1477473645.743:    607  69   9  792
1477473645.744:    654  69   9  792
1477473645.744:    611  69   9  792
1477473645.745:    475  69   9  792
1477473645.746:    304  69   9  792
1477473645.746:    152  69   9  792
1477473645.750:     37  69   9  792
1477473645.751:    -47  69   9  792
1477473645.757:   -101  69   9  792
1477473645.757:   -121  69   9  792
1477473645.757:   -139  69   9  792
1477473645.760:   -204  69   9  792
1477473645.760:   -322  69   9  792
1477473645.761:   -429  69   9  792
1477473645.763:   -450  69   9  792
1477473645.765:   -380  69   9  792
1477473645.769:   -292  69   9  792
1477473645.770:   -263  69   9  792
1477473645.784:   -303  69   9  792
1477473645.784:   -362  69   9  792
1477473645.784:   -397  69   9  792
1477473645.785:   -406  69   9  792
1477473645.785:   -421  69   9  792
1477473645.785:   -453  69   9  792
1477473645.786:   -478  69   9  792
1477473645.786:   -466  69   9  792
1477473645.787:   -418  69   9  792
1477473645.789:   -367  69   9  792
1477473645.790:   -346  69   9  792
1477473645.796:   -351  69   9  792
1477473645.803:   -345  69   9  792
1477473645.804:   -303  69   9  792
1477473645.806:   -246  69   9  792
1477473645.806:   -209  69   9  792
1477473645.806:   -205  69   9  792
1477473645.809:   -211  69   9  792
1477473645.810:   -205  69   9  792
1477473645.811:   -200  69   9  792
1477473645.812:   -221  69   9  792
1477473645.814:   -263  69   9  792
1477473645.823:   -295  69   9  792
1477473645.824:   -292  69   9  792
1477473645.825:   -275  69   9  792
1477473645.826:   -280  69   9  792
1477473645.826:   -304  69   9  792
1477473645.827:   -311  69   9  792
1477473645.828:   -290  69   9  792
1477473645.828:   -283  69   9  792
1477473645.833:   -327  69   9  792
1477473645.834:   -406  69   9  792
1477473645.842:   -464  69   9  792
1477473645.844:   -472  69   9  792
1477473645.844:   -465  69   9  792
1477473645.845:   -487  69   9  792
1477473645.846:   -530  69   9  792
1477473645.847:   -545  69   9  792
1477473645.847:   -503  69   9  792
1477473645.851:   -438  69   9  792
1477473645.862:   -402  69   9  792
1477473645.862:   -407  69   9  792
1477473645.863:   -420  69   9  792
1477473645.864:   -419  69   9  792
1477473645.864:   -423  69   9  792
1477473645.865:   -463  69   9  792
1477473645.866:   -536  69   9  792
1477473645.866:   -599  69   9  792
1477473645.867:   -605  69   9  792
1477473645.868:   -556  69   9  792
1477473645.870:   -485  69   9  792
1477473645.871:   -430  69   9  792
1477473645.874:   -399  69   9  792
1477473645.879:   -376  69   9  792
1477473645.909:   -338  69   9  792
1477473645.909:   -288  69   9  792
1477473645.910:   -245  69   9  792
1477473645.910:   -239  69   9  792
1477473645.910:   -283  69   9  792
1477473645.911:   -359  69   9  792
1477473645.911:   -434  69   9  792
1477473645.911:   -481  69   9  792
1477473645.911:   -499  69   9  792
1477473645.911:   -513  69   9  792
1477473645.912:   -531  69   9  792
1477473645.912:   -542  69   9  792
1477473645.912:   -532  71   9  822
1477473645.913:   -513  71   9  822
1477473645.913:   -516  71   9  822
1477473645.923:   -549  71   9  822
1477473645.924:   -588  71   9  822
1477473645.924:   -600  71   9  822
1477473645.924:   -583  71   9  822
1477473645.927:   -571  71   9  822
1477473645.927:   -589  71   9  822
1477473645.927:   -622  71   9  822
1477473645.928:   -634  71   9  822
1477473645.928:   -617  71   9  822
1477473645.928:   -596  71   9  822
1477473645.959:   -592  71   9  822
1477473645.962:   -607  71   9  822
1477473645.962:   -629  71   9  822
1477473645.962:   -654  71   9  822
1477473645.962:   -681  71   9  822
1477473645.964:   -698  71   9  822
1477473645.964:   -691  71   9  822
1477473645.965:   -668  71   9  822
1477473645.966:   -659  71   9  822
1477473645.971:   -686  71   9  822
1477473645.971:   -733  71   9  822
1477473645.972:   -765  71   9  822
1477473645.973:   -766  71   9  822
1477473645.973:   -763  71   9  822
1477473645.974:   -794  71   9  822
1477473645.975:   -864  71   9  822
1477473645.976:   -936  71   9  822
1477473645.977:   -971  71   9  822
1477473645.977:   -968  71   9  822
1477473645.977:   -958  71   9  822
1477473645.977:   -968  71   9  822
1477473645.978:   -986  71   9  822
1477473645.978:   -986  71   9  822
1477473645.979:   -949  71   9  822
1477473645.979:   -900  71   9  822
1477473645.979:   -870  71   9  822
1477473645.983:   -865  71   9  822
1477473645.995:   -866  71   9  822
1477473645.996:   -848  71   9  822
1477473645.996:   -816  71   9  822
1477473645.996:   -789  71   9  822
1477473645.996:   -781  71   9  822
1477473645.998:   -783  71   9  822
1477473645.999:   -781  71   9  822
1477473646.000:   -773  71   9  822
1477473646.000:   -756  71   9  822
1477473646.001:   -729  71   9  822
1477473646.001:   -698  71   9  822
1477473646.002:   -677  71   9  822
1477473646.003:   -679  71   9  822
1477473646.005:   -699  71   9  822
1477473646.017:   -706  71   9  822
1477473646.017:   -682  71   9  822
1477473646.017:   -645  71   9  822
1477473646.017:   -638  71   9  822
1477473646.017:   -683  71   9  822
1477473646.017:   -751  71   9  822
1477473646.020:   -783  71   9  822
1477473646.020:   -748  71   9  822
1477473646.022:   -664  71   9  822
1477473646.027:   -569  71   9  822
1477473646.037:   -483  71   9  822
1477473646.037:   -391  71   9  822
1477473646.037:   -279  71   9  822
1477473646.038:   -157  71   9  822
1477473646.038:    -51  71   9  822
1477473646.038:     25  71   9  822
1477473646.038:     73  71   9  822
1477473646.040:     92  71   9  822
1477473646.044:     76  71   9  822
1477473646.048:     28  71   9  822
1477473646.057:    -19  71   9  822
1477473646.057:    -36  71   9  822
1477473646.057:    -27  71   9  822
1477473646.057:    -13  71   9  822
1477473646.057:      0  71   9  822
1477473646.057:     30  71   9  822
1477473646.058:     87  71   9  822
1477473646.069:    145  71   9  822
1477473646.078:    167  71   9  822
1477473646.078:    152  71   9  822
1477473646.079:    137  71   9  822
1477473646.079:    145  71   9  822
1477473646.079:    161  71   9  822
1477473646.079:    155  71   9  822
1477473646.079:    134  71   9  822
1477473646.079:    129  71   9  822
1477473646.080:    154  71   9  822
1477473646.081:    178  71   9  822
1477473646.083:    172  71   9  822
1477473646.084:    151  71   9  822
1477473646.084:    160  71   9  822
1477473646.087:    216  71   9  822
1477473646.088:    276  71   9  822
1477473646.091:    284  71   9  822
1477473646.100:    232  71   9  822
1477473646.101:    180  71   9  822
1477473646.101:    187  71   9  822
1477473646.101:    257  71   9  822
1477473646.106:    332  71   9  822
1477473646.106:    356  71   9  822
1477473646.108:    327  71   9  822
1477473646.108:    285  71   9  822
1477473646.111:    270  71   9  822
1477473646.113:    285  71   9  822
1477473646.121:    300  71   9  822
1477473646.121:    291  71   9  822
1477473646.121:    258  71   9  822
1477473646.121:    214  71   9  822
1477473646.122:    168  71   9  822
1477473646.127:    123  71   9  822
1477473646.127:     82  71   9  822
1477473646.128:     59  71   9  822
1477473646.130:     61  71   9  822
1477473646.131:     69  71   9  822
1477473646.133:     57  71   9  822
1477473646.135:     19  71   9  822
1477473646.143:    -22  71   9  822
1477473646.143:    -36  71   9  822
1477473646.143:    -17  71   9  822
1477473646.143:      6  71   9  822
1477473646.145:     -2  71   9  822
1477473646.148:    -47  71   9  822
1477473646.148:   -103  71   9  822
1477473646.150:   -143  71   9  822
1477473646.152:   -162  71   9  822
1477473646.163:   -174  71   9  822
1477473646.163:   -189  71   9  822
1477473646.163:   -198  71   9  822
1477473646.163:   -185  71   9  822
1477473646.164:   -148  71   9  822
1477473646.167:    -99  71   9  822
1477473646.168:    -46  71   9  822
1477473646.171:     16  71   9  822
1477473646.173:     82  71   9  822
1477473646.183:    134  71   9  822
1477473646.184:    154  71   9  822
1477473646.184:    151  71   9  822
1477473646.184:    150  71   9  822
1477473646.185:    166  71   9  822
1477473646.185:    178  71   9  822
1477473646.186:    167  71   9  822
1477473646.186:    141  71   9  822
1477473646.187:    138  71   9  822
1477473646.190:    179  71   9  822
1477473646.191:    243  71   9  822
1477473646.193:    287  71   9  822
1477473646.202:    294  71   9  822
1477473646.202:    290  71   9  822
1477473646.203:    305  71   9  822
1477473646.203:    338  71   9  822
1477473646.205:    366  71   9  822
1477473646.205:    369  71   9  822
1477473646.207:    349  71   9  822
1477473646.211:    326  71   9  822
1477473646.222:    323  71   9  822
1477473646.306:    344  71   9  822
1477473646.319:    385  71   9  822
1477473646.319:    429  71   9  822
1477473646.319:    459  71   9  822
1477473646.319:    466  71   9  822
1477473646.320:    461  71   9  822
1477473646.320:    457  71   9  822
1477473646.320:    458  71   9  822
1477473646.320:    452  71   9  822
1477473646.320:    434  71   9  822
1477473646.320:    410  71   9  822
1477473646.321:    391  71   9  822
1477473646.321:    388  71   9  822
1477473646.321:    395  71   9  822
1477473646.321:    402  71   9  822
1477473646.323:    404  71   9  822
1477473646.323:    406  71   9  822
1477473646.324:    414  71   9  822
1477473646.324:    425  71   9  822
1477473646.324:    427  71   9  822
1477473646.324:    405  71   9  822
1477473646.324:    358  71   9  822
1477473646.325:    296  71   9  822
1477473646.325:    237  71   9  822
1477473646.325:    199  71   9  822
1477473646.325:    185  71   9  822
1477473646.325:    187  71   9  822
1477473646.326:    188  71   9  822
1477473646.326:    176  71   9  822
1477473646.326:    159  71   9  822
1477473646.326:    157  71   9  822
1477473646.326:    188  71   9  822
1477473646.327:    242  71   9  822
1477473646.327:    290  71   9  822
1477473646.327:    314  71   9  822
1477473646.327:    319  71   9  822
1477473646.327:    323  71   9  822
1477473646.328:    342  71   9  822
1477473646.328:    375  71   9  822
1477473646.328:    415  71   9  822
1477473646.328:    458  71   9  822
1477473646.328:    498  71   9  822
1477473646.329:    532  71   9  822
1477473646.329:    565  71   9  822
1477473646.329:    605  71   9  822
1477473646.329:    658  71   9  822
1477473646.329:    704  71   9  822
1477473646.329:    720  71   9  822
1477473646.330:    704  71   9  822
1477473646.330:    683  71   9  822
1477473646.330:    680  71   9  822
1477473646.330:    696  71   9  822
1477473646.330:    701  71   9  822
1477473646.331:    681  71   9  822
1477473646.331:    652  71   9  822
1477473646.331:    641  71   9  822
1477473646.331:    657  71   9  822
1477473646.331:    682  71   9  822
1477473646.332:    689  71   9  822
1477473646.332:    672  71   9  822
1477473646.332:    640  71   9  822
1477473646.334:    610  71   9  822
1477473646.337:    586  71   9  822
1477473646.349:    563  71   9  822
1477473646.349:    544  71   9  822
1477473646.350:    532  71   9  822
1477473646.350:    534  71   9  822
1477473646.350:    539  71   9  822
1477473646.350:    522  71   9  822
1477473646.350:    470  71   9  822
1477473646.350:    410  71   9  822
1477473646.354:    373  71   9  822
1477473646.354:    361  71   9  822
1477473646.360:    341  71   9  822
1477473646.361:    283  71   9  822
1477473646.362:    204  71   9  822
1477473646.363:    154  71   9  822
1477473646.365:    155  71   9  822
1477473646.368:    180  71   9  822
1477473646.385:    185  71   9  822
1477473646.385:    160  71   9  822
1477473646.385:    119  71   9  822
1477473646.385:     46  71   9  822
1477473646.386:   -148  71   9  822
1477473646.386:   -575  71   9  822
1477473646.386:  -1246  71   9  822
1477473646.386:  -2041  71   9  822
1477473646.391:  -2785  71   9  822
1477473646.391:  -3377  71   9  822
1477473646.395:  -3825  71   9  822
1477473646.396:  -4169  71   9  822
1477473646.396:  -4378  71   9  822
1477473646.396:  -4352  71   9  822
1477473646.397:  -4018  71   9  822
1477473646.400:  -3404  71   9  822
1477473646.401:  -2621  71   9  822
1477473646.402:  -1779  71   9  822
1477473646.403:   -952  71   9  822
1477473646.405:   -193  71   9  822
1477473646.409:    437  71   9  822
1477473646.409:    888  71   9  822
1477473646.422:   1167  71   9  822
1477473646.422:   1330  71   9  822
1477473646.423:   1430  71   9  822
1477473646.423:   1474  71   9  822
1477473646.424:   1447  71   9  822
1477473646.425:   1349  71   9  822
1477473646.426:   1216  71   9  822
1477473646.431:   1103  71   9  822
1477473646.442:   1041  71   9  822
1477473646.443:   1026  71   9  822
1477473646.444:   1024  71   9  822
1477473646.444:   1000  71   9  822
1477473646.445:    938  71   9  822
1477473646.446:    850  71   9  822
1477473646.452:    768  71   9  822
1477473646.453:    718  71   9  822
1477473646.462:    709  71   9  822
1477473646.462:    734  71   9  822
1477473646.463:    774  71   9  822
1477473646.464:    798  71   9  822
1477473646.465:    780  71   9  822
1477473646.466:    709  71   9  822
1477473646.467:    613  71   9  822
1477473646.469:    545  71   9  822
1477473646.470:    534  71   9  822
1477473646.470:    564  71   9  822
1477473646.471:    596  71   9  822
1477473646.471:    619  71   9  822
1477473646.472:    644  71   9  822
1477473646.473:    681  71   9  822
1477473646.474:    710  71   9  822
1477473646.475:    710  71   9  822
1477473646.478:    694  71   9  822
1477473646.478:    691  71   9  822
1477473646.493:    706  71   9  822
1477473646.494:    703  71   9  822
1477473646.494:    656  71   9  822
1477473646.495:    584  71   9  822
1477473646.495:    533  71   9  822
1477473646.496:    521  71   9  822
1477473646.497:    519  71   9  822
1477473646.497:    496  71   9  822
1477473646.498:    459  71   9  822
1477473646.499:    443  71   9  822
1477473646.499:    461  71   9  822
1477473646.500:    484  71   9  822
1477473646.505:    480  71   9  822
1477473646.506:    452  71   9  822
1477473646.512:    432  71   9  822
1477473646.513:    442  71   9  822
1477473646.514:    472  71   9  822
1477473646.514:    493  71   9  822
1477473646.515:    490  71   9  822
1477473646.518:    473  71   9  822
1477473646.521:    461  71   9  822
1477473646.521:    466  71   9  822
1477473646.522:    479  71   9  822
1477473646.522:    483  71   9  822
1477473646.534:    470  71   9  822
1477473646.535:    448  71   9  822
1477473646.537:    433  71   9  822
1477473646.538:    433  71   9  822
1477473646.538:    438  71   9  822
1477473646.539:    436  71   9  822
1477473646.539:    422  71   9  822
1477473646.540:    403  71   9  822
1477473646.543:    384  71   9  822
1477473646.574:    362  71   9  822
1477473646.575:    336  71   9  822
1477473646.577:    312  71   9  822
1477473646.587:    299  71   9  822
1477473646.587:    291  71   9  822
1477473646.588:    276  71   9  822
1477473646.589:    246  71   9  822
1477473646.589:    206  71   9  822
1477473646.590:    164  71   9  822
1477473646.592:    119  71   9  822
1477473646.593:     66  71   9  822
1477473646.593:      3  71   9  822
1477473646.594:    -51  71   9  822
1477473646.604:    -75  71   9  822
1477473646.605:    -68  71   9  822
1477473646.606:    -45  71   9  822
1477473646.607:    -28  71   9  822
1477473646.608:    -14  71   9  822
1477473646.609:     17  71   9  822
1477473646.610:     75  71   9  822
1477473646.610:    137  71   9  822
1477473646.611:    164  71   9  822
1477473646.611:    136  71   9  822
1477473646.622:     70  71   9  822
1477473646.623:      2  71   9  822
1477473646.623:    -47  71   9  822
1477473646.624:    -76  71   9  822
1477473646.625:    -96  71   9  822
1477473646.626:   -113  71   9  822
1477473646.627:   -126  71   9  822
1477473646.627:   -127  71   9  822
1477473646.628:   -109  71   9  822
1477473646.628:    -66  71   9  822
1477473646.640:     -8  71   9  822
1477473646.640:     35  71   9  822
1477473646.641:     35  71   9  822
1477473646.642:     -6  71   9  822
1477473646.643:    -58  71   9  822
1477473646.643:    -91  71   9  822
1477473646.644:   -103  71   9  822
1477473646.645:   -120  71   9  822
1477473646.645:   -158  71   9  822
1477473646.646:   -209  71   9  822
1477473646.657:   -249  71   9  822
1477473646.657:   -268  71   9  822
1477473646.657:   -274  71   9  822
1477473646.658:   -283  71   9  822
1477473646.658:   -306  74   9  831
1477473646.658:   -343  74   9  831
1477473646.658:   -396  74   9  831
1477473646.659:   -460  74   9  831
1477473646.659:   -517  74   9  831
1477473646.659:   -552  74   9  831
1477473646.659:   -561  74   9  831
1477473646.660:   -551  74   9  831
1477473646.660:   -537  74   9  831
1477473646.662:   -522  74   9  831
1477473646.664:   -496  74   9  831
1477473646.664:   -450  74   9  831
1477473646.674:   -392  74   9  831
1477473646.675:   -339  74   9  831
1477473646.676:   -305  74   9  831
1477473646.677:   -290  74   9  831
1477473646.677:   -282  74   9  831
1477473646.677:   -271  74   9  831
1477473646.677:   -254  74   9  831
1477473646.678:   -237  74   9  831
1477473646.678:   -228  74   9  831
1477473646.680:   -227  74   9  831
1477473646.680:   -227  74   9  831
1477473646.682:   -222  74   9  831
1477473646.692:   -210  74   9  831
1477473646.692:   -195  74   9  831
1477473646.692:   -185  74   9  831
1477473646.694:   -183  74   9  831
1477473646.695:   -179  74   9  831
1477473646.695:   -166  74   9  831
1477473646.696:   -147  74   9  831
1477473646.698:   -136  74   9  831
1477473646.698:   -135  74   9  831
1477473646.700:   -128  74   9  831
1477473646.701:    -97  74   9  831
1477473646.706:    -47  74   9  831
1477473646.706:     -3  74   9  831
1477473646.708:     17  74   9  831
1477473646.712:     29  74   9  831
1477473646.712:     59  74   9  831
1477473646.727:    109  74   9  831
1477473646.728:    145  74   9  831
1477473646.730:    142  74   9  831
1477473646.730:    117  74   9  831
1477473646.732:    119  74   9  831
1477473646.738:    174  74   9  831
1477473646.738:    252  74   9  831
1477473646.738:    298  74   9  831
1477473646.738:    296  74   9  831
1477473646.739:    277  74   9  831
1477473646.739:    286  74   9  831
1477473646.745:    334  74   9  831
1477473646.746:    390  74   9  831
1477473646.746:    414  74   9  831
1477473646.746:    398  74   9  831
1477473646.747:    365  74   9  831
1477473646.747:    345  74   9  831
1477473646.750:    350  74   9  831
1477473646.763:    369  74   9  831
1477473646.764:    385  74   9  831
1477473646.765:    391  74   9  831
1477473646.766:    397  74   9  831
1477473646.766:    416  74   9  831
1477473646.767:    453  74   9  831
1477473646.767:    501  74   9  831
1477473646.768:    542  74   9  831
1477473646.768:    562  74   9  831
1477473646.772:    567  74   9  831
1477473646.784:    565  74   9  831
1477473646.785:    566  74   9  831
1477473646.786:    565  74   9  831
1477473646.788:    553  74   9  831
1477473646.789:    528  74   9  831
1477473646.797:    497  74   9  831
1477473646.799:    471  74   9  831
1477473646.800:    450  74   9  831
1477473646.800:    427  74   9  831
1477473646.800:    394  74   9  831
1477473646.800:    357  74   9  831
1477473646.801:    327  74   9  831
1477473646.801:    309  74   9  831
1477473646.801:    298  74   9  831
1477473646.802:    286  74   9  831
1477473646.802:    268  74   9  831
1477473646.802:    246  74   9  831
1477473646.802:    224  74   9  831
1477473646.804:    205  74   9  831
1477473646.807:    186  74   9  831
1477473646.822:    163  74   9  831
1477473646.823:    132  74   9  831
1477473646.827:     97  74   9  831
1477473646.827:     68  74   9  831
1477473646.828:     50  74   9  831
1477473646.829:     36  74   9  831
1477473646.830:     20  74   9  831
1477473646.830:      2  74   9  831
1477473646.841:     -8  74   9  831
1477473646.841:     -5  74   9  831
1477473646.842:      3  74   9  831
1477473646.843:      3  74   9  831
1477473646.844:     -3  74   9  831
1477473646.844:     -1  74   9  831
1477473646.845:     14  74   9  831
1477473646.845:     25  74   9  831
1477473646.845:     11  74   9  831
1477473646.846:    -23  74   9  831
1477473646.847:    -50  74   9  831
1477473646.851:    -51  74   9  831
1477473646.859:    -34  74   9  831
1477473646.859:    -20  74   9  831
1477473646.860:    -16  74   9  831
1477473646.860:    -14  74   9  831
1477473646.862:     -9  74   9  831
1477473646.862:    -11  74   9  831
1477473646.867:    -16  74   9  831
1477473646.868:     -9  74   9  831
1477473646.872:     17  74   9  831
1477473646.873:     38  74   9  831
1477473646.882:     26  74   9  831
1477473646.882:    -11  74   9  831
1477473646.884:    -31  74   9  831
1477473646.885:     -4  74   9  831
1477473646.902:     46  74   9  831
1477473646.902:     68  74   9  831
1477473646.902:     45  74   9  831
1477473646.902:     10  74   9  831
1477473646.902:      8  74   9  831
1477473646.902:     40  74   9  831
1477473646.903:     73  74   9  831
1477473646.903:     81  74   9  831
1477473646.903:     69  74   9  831
1477473646.903:     62  74   9  831
1477473646.903:     67  74   9  831
1477473646.905:     77  74   9  831
1477473646.905:     80  74   9  831
1477473646.907:     79  74   9  831
1477473646.908:     80  74   9  831
1477473646.909:     87  74   9  831
1477473646.931:     94  74   9  831
1477473646.931:     97  74   9  831
1477473646.944:    103  74   9  831
1477473646.945:    116  74   9  831
1477473646.945:    137  74   9  831
1477473646.946:    157  74   9  831
1477473646.947:    164  74   9  831
1477473646.947:    158  74   9  831
1477473646.948:    145  74   9  831
1477473646.949:    128  74   9  831
1477473646.950:    103  74   9  831
1477473646.950:     61  74   9  831
1477473646.951:     11  74   9  831
1477473646.952:    -29  74   9  831
1477473646.952:    -51  74   9  831
1477473646.953:    -63  74   9  831
1477473646.967:    -82  74   9  831
1477473647.024:   -106  74   9  831
1477473647.024:   -114  74   9  831
1477473647.024:    -94  74   9  831
1477473647.024:    -54  74   9  831
1477473647.024:    -15  74   9  831
1477473647.024:      9  74   9  831
1477473647.024:     25  74   9  831
1477473647.025:     49  74   9  831
1477473647.025:     86  74   9  831
1477473647.025:    130  74   9  831
1477473647.025:    162  74   9  831
1477473647.025:    167  74   9  831
1477473647.025:    144  74   9  831
1477473647.025:    111  74   9  831
1477473647.026:     94  74   9  831
1477473647.026:     99  74   9  831
1477473647.026:    109  74   9  831
1477473647.027:    108  74   9  831
1477473647.027:     98  74   9  831
1477473647.027:     91  74   9  831
1477473647.027:     89  74   9  831
1477473647.028:     86  74   9  831
1477473647.028:     81  74   9  831
1477473647.028:     83  74   9  831
1477473647.028:     99  74   9  831
1477473647.028:    117  74   9  831
1477473647.029:    119  74   9  831
1477473647.029:    108  74   9  831
1477473647.029:    107  74   9  831
1477473647.029:    126  74   9  831
1477473647.029:    150  74   9  831
1477473647.029:    155  74   9  831
1477473647.030:    141  74   9  831
1477473647.030:    123  74   9  831
1477473647.030:    113  74   9  831
1477473647.031:    101  74   9  831
1477473647.031:     74  74   9  831
1477473647.031:     35  74   9  831
1477473647.031:      6  74   9  831
1477473647.031:      1  74   9  831
1477473647.031:     12  74   9  831
1477473647.032:     23  74   9  831
1477473647.032:     26  74   9  831
1477473647.033:     24  74   9  831
1477473647.033:     28  74   9  831
1477473647.033:     46  74   9  831
1477473647.033:     73  74   9  831
1477473647.037:     90  74   9  831
1477473647.037:     83  74   9  831
1477473647.038:     55  74   9  831
1477473647.039:     31  74   9  831
1477473647.053:     26  74   9  831
1477473647.054:     28  74   9  831
1477473647.054:     17  74   9  831
1477473647.054:    -11  74   9  831
1477473647.054:    -33  74   9  831
1477473647.054:    -26  74   9  831
1477473647.055:     -2  74   9  831
1477473647.055:      9  74   9  831
1477473647.055:     -4  74   9  831
1477473647.058:    -16  74   9  831
1477473647.061:     -1  74   9  831
1477473647.062:     35  74   9  831
1477473647.072:     62  74   9  831
1477473647.073:     64  74   9  831
1477473647.074:     57  74   9  831
1477473647.074:     57  74   9  831
1477473647.074:     59  74   9  831
1477473647.077:     45  74   9  831
1477473647.077:     16  74   9  831
1477473647.078:     -1  74   9  831
1477473647.079:      6  74   9  831
1477473647.081:     25  74   9  831
1477473647.090:     30  74   9  831
1477473647.091:     16  74   9  831
1477473647.091:      4  74   9  831
1477473647.091:      9  74   9  831
1477473647.092:     20  74   9  831
1477473647.092:     16  74   9  831
1477473647.094:     -5  74   9  831
1477473647.097:    -25  74   9  831
1477473647.098:    -32  74   9  831
1477473647.103:    -34  74   9  831
1477473647.112:    -47  74   9  831
1477473647.113:    -70  74   9  831
1477473647.114:    -89  74   9  831
1477473647.114:    -87  74   9  831
1477473647.115:    -66  74   9  831
1477473647.115:    -46  74   9  831
1477473647.116:    -43  74   9  831
1477473647.117:    -58  74   9  831
1477473647.117:    -84  74   9  831
1477473647.121:   -117  74   9  831
1477473647.132:   -166  74   9  831
1477473647.133:   -236  74   9  831
1477473647.133:   -322  74   9  831
1477473647.134:   -406  74   9  831
1477473647.135:   -469  74   9  831
1477473647.135:   -503  74   9  831
1477473647.136:   -517  74   9  831
1477473647.137:   -521  74   9  831
1477473647.137:   -515  74   9  831
1477473647.142:   -488  74   9  831
1477473647.147:   -434  74   9  831
1477473647.149:   -364  74   9  831
1477473647.159:   -302  74   9  831
1477473647.160:   -266  74   9  831
1477473647.160:   -252  74   9  831
1477473647.161:   -244  74   9  831
1477473647.162:   -224  74   9  831
1477473647.162:   -189  74   9  831
1477473647.163:   -151  74   9  831
1477473647.164:   -125  74   9  831
1477473647.170:   -113  74   9  831
1477473647.171:    -95  74   9  831
1477473647.179:    -52  74   9  831
1477473647.180:     18  74   9  831
1477473647.181:     91  74   9  831
1477473647.181:    142  74   9  831
1477473647.182:    167  74   9  831
1477473647.182:    180  74   9  831
1477473647.183:    189  74   9  831
1477473647.184:    189  74   9  831
1477473647.185:    174  74   9  831
1477473647.185:    149  74   9  831
1477473647.186:    132  74   9  831
1477473647.187:    130  74   9  831
1477473647.188:    134  74   9  831
1477473647.189:    133  74   9  831
1477473647.194:    129  74   9  831
1477473647.195:    134  74   9  831
1477473647.196:    151  74   9  831
1477473647.197:    168  74   9  831
1477473647.211:    165  74   9  831
1477473647.212:    139  74   9  831
1477473647.213:    103  74   9  831
1477473647.213:     75  74   9  831
1477473647.214:     57  74   9  831
1477473647.215:     32  74   9  831
1477473647.215:    -12  74   9  831
1477473647.216:    -66  74   9  831
1477473647.218:   -108  74   9  831
1477473647.218:   -133  74   9  831
1477473647.222:   -150  74   9  831
1477473647.222:   -166  74   9  831
1477473647.232:   -174  74   9  831
1477473647.234:   -174  74   9  831
1477473647.234:   -181  74   9  831
1477473647.235:   -215  74   9  831
1477473647.237:   -273  74   9  831
1477473647.238:   -321  74   9  831
1477473647.239:   -345  74   9  831
1477473647.240:   -399  74   9  831
1477473647.241:   -583  74   9  831
1477473647.242:   -977  74   9  831
1477473647.245:  -1571  74   9  831
1477473647.247:  -2266  74   9  831
1477473647.254:  -2943  74   9  831
1477473647.254:  -3533  74   9  831
1477473647.268:  -4019  74   9  831
1477473647.269:  -4396  74   9  831
1477473647.270:  -4630  74   9  831
1477473647.270:  -4654  74   9  831
1477473647.271:  -4414  74   9  831
1477473647.272:  -3908  74   9  831
1477473647.272:  -3198  74   9  831
1477473647.273:  -2373  74   9  831
1477473647.273:  -1514  74   9  831
1477473647.274:   -681  74   9  831
1477473647.286:     62  74   9  831
1477473647.286:    651  74   9  831
1477473647.286:   1047  74   9  831
1477473647.287:   1265  74   9  831
1477473647.287:   1362  74   9  831
1477473647.287:   1393  74   9  831
1477473647.287:   1378  74   9  831
1477473647.287:   1303  74   9  831
1477473647.288:   1161  74   9  831
1477473647.288:    983  74   9  831
1477473647.290:    831  74   9  831
1477473647.295:    760  74   9  831
1477473647.314:    768  74   9  831
1477473647.314:    803  74   9  831
1477473647.314:    799  74   9  831
1477473647.316:    736  74   9  831
1477473647.317:    649  74   9  831
1477473647.318:    599  74   9  831
1477473647.318:    610  74   9  831
1477473647.319:    656  74   9  831
1477473647.319:    700  74   9  831
1477473647.320:    716  79  10  817
1477473647.321:    705  79  10  817
1477473647.321:    677  79  10  817
1477473647.322:    642  79  10  817
1477473647.322:    606  79  10  817
1477473647.323:    581  79  10  817
1477473647.328:    577  79  10  817
1477473647.342:    599  79  10  817
1477473647.342:    642  79  10  817
1477473647.345:    680  79  10  817
1477473647.345:    688  79  10  817
1477473647.346:    653  79  10  817
1477473647.347:    595  79  10  817
1477473647.347:    554  79  10  817
1477473647.348:    551  79  10  817
1477473647.359:    567  79  10  817
1477473647.359:    568  79  10  817
1477473647.359:    541  79  10  817
1477473647.360:    503  79  10  817
1477473647.360:    489  79  10  817
1477473647.360:    509  79  10  817
1477473647.360:    539  79  10  817
1477473647.360:    552  79  10  817
1477473647.360:    540  79  10  817
1477473647.360:    523  79  10  817
1477473647.361:    521  79  10  817
1477473647.364:    540  79  10  817
1477473647.369:    565  79  10  817
1477473647.370:    576  79  10  817
1477473647.374:    559  79  10  817
1477473647.376:    524  79  10  817
1477473647.380:    491  79  10  817
1477473647.381:    477  79  10  817
1477473647.381:    482  79  10  817
1477473647.382:    489  79  10  817
1477473647.382:    483  79  10  817
1477473647.385:    467  79  10  817
1477473647.400:    452  79  10  817
1477473647.400:    446  79  10  817
1477473647.400:    448  79  10  817
1477473647.400:    453  79  10  817
1477473647.400:    459  79  10  817
1477473647.401:    467  79  10  817
1477473647.401:    471  79  10  817
1477473647.401:    462  79  10  817
1477473647.402:    442  79  10  817
1477473647.402:    427  79  10  817
1477473647.404:    425  79  10  817
1477473647.407:    425  79  10  817
1477473647.409:    407  79  10  817
1477473647.410:    372  79  10  817
1477473647.415:    343  79  10  817
1477473647.415:    342  79  10  817
1477473647.417:    356  79  10  817
1477473647.418:    354  79  10  817
1477473647.423:    324  79  10  817
1477473647.423:    288  79  10  817
1477473647.425:    275  79  10  817
1477473647.428:    285  79  10  817
1477473647.441:    294  79  10  817
1477473647.442:    284  79  10  817
1477473647.442:    263  79  10  817
1477473647.443:    244  79  10  817
1477473647.444:    226  79  10  817
1477473647.445:    206  79  10  817
1477473647.445:    188  79  10  817
1477473647.446:    183  79  10  817
1477473647.446:    185  79  10  817
1477473647.447:    175  79  10  817
1477473647.448:    147  79  10  817
1477473647.450:    118  79  10  817
1477473647.460:    104  79  10  817
1477473647.462:    102  79  10  817
1477473647.463:     89  79  10  817
1477473647.465:     65  79  10  817
1477473647.466:     44  79  10  817
1477473647.469:     40  79  10  817
1477473647.470:     37  79  10  817
1477473647.471:     20  79  10  817
1477473647.472:     -4  79  10  817
1477473647.472:     -9  79  10  817
1477473647.473:     11  79  10  817
1477473647.475:     21  79  10  817
1477473647.477:    -12  79  10  817
1477473647.477:    -69  79  10  817
1477473647.479:   -100  79  10  817
1477473647.481:    -83  79  10  817
1477473647.482:    -59  79  10  817
1477473647.487:    -80  79  10  817
1477473647.503:   -150  79  10  817
1477473647.503:   -215  79  10  817
1477473647.503:   -228  79  10  817
1477473647.503:   -201  79  10  817
1477473647.504:   -183  79  10  817
1477473647.504:   -210  79  10  817
1477473647.504:   -263  79  10  817
1477473647.504:   -301  79  10  817
1477473647.504:   -304  79  10  817
1477473647.505:   -282  79  10  817
1477473647.506:   -258  79  10  817
1477473647.510:   -249  79  10  817
1477473647.510:   -254  79  10  817
1477473647.514:   -264  79  10  817
1477473647.514:   -267  79  10  817
1477473647.516:   -266  79  10  817
1477473647.518:   -270  79  10  817
1477473647.524:   -286  79  10  817
1477473647.531:   -315  79  10  817
1477473647.531:   -342  79  10  817
1477473647.531:   -358  79  10  817
1477473647.531:   -369  79  10  817
1477473647.533:   -381  79  10  817
1477473647.533:   -387  79  10  817
1477473647.537:   -374  79  10  817
1477473647.537:   -340  79  10  817
1477473647.538:   -291  79  10  817
1477473647.539:   -241  79  10  817
1477473647.541:   -194  79  10  817
1477473647.546:   -155  79  10  817
1477473647.547:   -129  79  10  817
1477473647.550:   -121  79  10  817
1477473647.568:   -123  79  10  817
1477473647.568:   -123  79  10  817
1477473647.568:   -113  79  10  817
1477473647.569:    -94  79  10  817
1477473647.569:    -84  79  10  817
1477473647.569:    -92  79  10  817
1477473647.569:   -111  79  10  817
1477473647.569:   -119  79  10  817
1477473647.569:   -100  79  10  817
1477473647.569:    -57  79  10  817
1477473647.569:    -18  79  10  817
1477473647.571:    -10  79  10  817
1477473647.574:    -27  79  10  817
1477473647.579:    -42  79  10  817
1477473647.579:    -40  79  10  817
1477473647.580:    -29  79  10  817
1477473647.581:    -26  79  10  817
1477473647.582:    -24  79  10  817
1477473647.585:     -6  79  10  817
1477473647.587:     23  79  10  817
1477473647.595:     40  79  10  817
1477473647.595:     31  79  10  817
1477473647.595:     24  79  10  817
1477473647.596:     63  79  10  817
1477473647.596:    148  79  10  817
1477473647.600:    229  79  10  817
1477473647.601:    256  79  10  817
1477473647.606:    234  79  10  817
1477473647.616:    210  79  10  817
1477473647.616:    223  79  10  817
1477473647.616:    270  79  10  817
1477473647.617:    315  79  10  817
1477473647.617:    340  79  10  817
1477473647.617:    352  79  10  817
1477473647.619:    360  79  10  817
1477473647.619:    364  79  10  817
1477473647.621:    360  79  10  817
1477473647.685:    347  79  10  817
1477473647.685:    336  79  10  817
1477473647.685:    333  79  10  817
1477473647.686:    336  79  10  817
1477473647.686:    342  79  10  817
1477473647.686:    344  79  10  817
1477473647.686:    331  79  10  817
1477473647.686:    306  79  10  817
1477473647.686:    284  79  10  817
1477473647.687:    288  79  10  817
1477473647.687:    322  79  10  817
1477473647.687:    362  79  10  817
1477473647.687:    375  79  10  817
1477473647.687:    352  79  10  817
1477473647.688:    321  79  10  817
1477473647.688:    305  79  10  817
1477473647.688:    300  79  10  817
1477473647.688:    284  79  10  817
1477473647.688:    250  79  10  817
1477473647.688:    216  79  10  817
1477473647.689:    185  79  10  817
1477473647.716:    151  79  10  817
1477473647.716:    107  79  10  817
1477473647.717:     73  79  10  817
1477473647.717:     73  79  10  817
1477473647.717:    108  79  10  817
1477473647.717:    142  79  10  817
1477473647.718:    149  79  10  817
1477473647.718:    137  79  10  817
1477473647.718:    133  79  10  817
1477473647.718:    140  79  10  817
1477473647.718:    143  79  10  817
1477473647.719:    133  79  10  817
1477473647.719:    120  79  10  817
1477473647.719:    112  79  10  817
1477473647.719:     93  79  10  817
1477473647.719:     46  79  10  817
1477473647.720:    -12  79  10  817
1477473647.720:    -34  79  10  817
1477473647.721:      0  79  10  817
1477473647.721:     61  79  10  817
1477473647.721:     95  79  10  817
1477473647.721:     87  79  10  817
1477473647.722:     74  79  10  817
1477473647.722:     90  79  10  817
1477473647.722:    121  79  10  817
1477473647.723:    128  79  10  817
1477473647.723:     91  79  10  817
1477473647.723:     45  79  10  817
1477473647.723:     32  79  10  817
1477473647.724:     51  79  10  817
1477473647.724:     64  79  10  817
1477473647.724:     53  79  10  817
1477473647.727:     36  79  10  817
1477473647.730:     49  79  10  817
1477473647.735:    101  79  10  817
1477473647.735:    166  79  10  817
1477473647.745:    219  79  10  817
1477473647.745:    250  79  10  817
1477473647.745:    265  79  10  817
1477473647.745:    264  79  10  817
1477473647.745:    250  79  10  817
1477473647.748:    236  79  10  817
1477473647.748:    236  79  10  817
1477473647.748:    245  79  10  817
1477473647.752:    240  79  10  817
1477473647.753:    216  79  10  817
1477473647.754:    200  79  10  817
1477473647.756:    220  79  10  817
1477473647.757:    263  79  10  817
1477473647.760:    284  79  10  817
1477473647.761:    270  79  10  817
1477473647.766:    255  79  10  817
1477473647.766:    287  79  10  817
1477473647.778:    361  79  10  817
1477473647.794:    421  79  10  817
1477473647.794:    427  79  10  817
1477473647.795:    397  79  10  817
1477473647.796:    385  79  10  817
1477473647.796:    421  79  10  817
1477473647.797:    473  79  10  817
1477473647.798:    486  79  10  817
1477473647.800:    442  79  10  817
1477473647.801:    371  79  10  817
1477473647.802:    326  79  10  817
1477473647.802:    335  79  10  817
1477473647.803:    383  79  10  817
1477473647.804:    428  79  10  817
1477473647.804:    441  79  10  817
1477473647.805:    426  79  10  817
1477473647.805:    426  79  10  817
1477473647.817:    468  79  10  817
1477473647.818:    538  79  10  817
1477473647.818:    588  79  10  817
1477473647.818:    580  79  10  817
1477473647.818:    525  79  10  817
1477473647.818:    478  79  10  817
1477473647.819:    476  79  10  817
1477473647.819:    505  79  10  817
1477473647.819:    513  79  10  817
1477473647.820:    470  79  10  817
1477473647.821:    401  79  10  817
1477473647.822:    367  79  10  817
1477473647.824:    398  79  10  817
1477473647.853:    462  79  10  817
1477473647.864:    501  79  10  817
1477473647.865:    490  79  10  817
1477473647.868:    454  79  10  817
1477473647.869:    437  79  10  817
1477473647.870:    452  79  10  817
1477473647.870:    473  79  10  817
1477473647.871:    472  79  10  817
1477473647.872:    463  79  10  817
1477473647.872:    469  79  10  817
1477473647.873:    484  79  10  817
1477473647.885:    474  79  10  817
1477473647.886:    420  79  10  817
1477473647.886:    367  79  10  817
1477473647.886:    372  79  10  817
1477473647.886:    433  79  10  817
1477473647.887:    482  79  10  817
1477473647.887:    463  79  10  817
1477473647.887:    403  79  10  817
1477473647.887:    381  79  10  817
1477473647.887:    429  79  10  817
1477473647.887:    494  79  10  817
1477473647.888:    509  79  10  817
1477473647.888:    466  79  10  817
1477473647.888:    421  79  10  817
1477473647.888:    416  79  10  817
1477473647.888:    433  79  10  817
1477473647.889:    431  79  10  817
1477473647.889:    407  79  10  817
1477473647.889:    384  79  10  817
1477473647.889:    378  79  10  817
1477473647.889:    374  79  10  817
1477473647.890:    358  79  10  817
1477473647.892:    338  79  10  817
1477473647.894:    334  79  10  817
1477473647.901:    343  79  10  817
1477473647.902:    345  79  10  817
1477473647.904:    328  79  10  817
1477473647.904:    298  79  10  817
1477473647.906:    266  79  10  817
1477473647.907:    233  79  10  817
1477473647.908:    189  79  10  817
1477473647.912:    135  79  10  817
1477473647.912:     83  79  10  817
1477473647.914:     45  79  10  817
1477473647.915:     19  79  10  817
1477473647.916:     -1  79  10  817
1477473647.931:    -23  79  10  817
1477473647.931:    -43  79  10  817
1477473647.932:    -46  79  10  817
1477473647.932:    -15  79  10  817
1477473647.933:     44  79  10  817
1477473647.936:    103  79  10  817
1477473647.937:    134  79  10  817
1477473647.937:    141  79  10  817
1477473647.948:    157  79  10  817
1477473647.948:    209  79  10  817
1477473647.949:    276  79  10  817
1477473647.949:    317  79  10  817
1477473647.949:    309  79  10  817
1477473647.949:    276  79  10  817
1477473647.954:    260  79  10  817
1477473647.954:    274  79  10  817
1477473647.954:    309  79  10  817
1477473647.956:    345  79  10  817
1477473647.957:    376  79  10  817
1477473647.958:    408  79  10  817
1477473647.967:    442  79  10  817
1477473647.967:    482  79  10  817
1477473647.968:    526  79  10  817
1477473647.968:    565  79  10  817
1477473647.968:    585  79  10  817
1477473647.969:    581  79  10  817
1477473647.972:    563  79  10  817
1477473647.972:    550  79  10  817
1477473647.974:    541  79  10  817
1477473647.975:    518  79  10  817
1477473647.978:    472  79  10  817
1477473647.983:    418  79  10  817
1477473647.988:    384  79  10  817
1477473647.988:    377  79  10  817
1477473647.988:    374  79  10  817
1477473647.990:    363  79  10  817
1477473647.991:    354  79  10  817
1477473647.992:    367  79  10  817
1477473647.995:    397  79  10  817
1477473647.995:    406  79  10  817
1477473648.002:    366  79  10  817
1477473648.002:    300  79  10  817
1477473648.007:    250  79  10  817
1477473648.007:    227  79  10  817
1477473648.008:    200  79  10  817
1477473648.009:    143  79  10  817
1477473648.010:     84  79  10  817
1477473648.014:     62  79  10  817
1477473648.014:     70  79  10  817
1477473648.018:     64  79  10  817
1477473648.019:     37  79  10  817
1477473648.019:     30  79  10  817
1477473648.021:     72  79  10  817
1477473648.028:    103  79  10  817
1477473648.029:     15  79  10  817
1477473648.030:   -252  79  10  817
1477473648.036:   -676  79  10  817
1477473648.037:  -1199  79  10  817
1477473648.050:  -1801  79  10  817
1477473648.051:  -2467  79  10  817
1477473648.052:  -3117  79  10  817
1477473648.053:  -3619  79  10  817
1477473648.054:  -3882  79  10  817
1477473648.054:  -3920  79  10  817
1477473648.055:  -3803  79  10  817
1477473648.055:  -3557  79  10  817
1477473648.056:  -3128  79  10  817
1477473648.057:  -2462  79  10  817
1477473648.057:  -1589  79  10  817
1477473648.057:   -652  79  10  817
1477473648.058:    178  79  10  817
1477473648.058:    786  79  10  817
1477473648.069:   1168  79  10  817
1477473648.069:   1400  79  10  817
1477473648.070:   1563  79  10  817
1477473648.070:   1678  79  10  817
1477473648.070:   1702  79  10  817
1477473648.071:   1596  79  10  817
1477473648.071:   1378  79  10  817
1477473648.077:   1124  79  10  817
1477473648.078:    915  79  10  817
1477473648.082:    792  79  10  817
1477473648.086:    756  79  10  817
1477473648.086:    775  79  10  817
1477473648.087:    798  79  10  817
1477473648.088:    770  79  10  817
1477473648.088:    678  79  10  817
1477473648.089:    571  79  10  817
1477473648.094:    521  79  10  817
1477473648.095:    555  79  10  817
1477473648.106:    629  79  10  817
1477473648.110:    674  79  10  817
1477473648.113:    667  79  10  817
1477473648.113:    634  79  10  817
1477473648.124:    601  79  10  817
1477473648.125:    575  79  10  817
1477473648.126:    552  79  10  817
1477473648.127:    541  79  10  817
1477473648.127:    561  79  10  817
1477473648.128:    605  79  10  817
1477473648.130:    637  79  10  817
1477473648.130:    626  79  10  817
1477473648.131:    574  79  10  817
1477473648.131:    511  79  10  817
1477473648.132:    464  79  10  817
1477473648.132:    434  79  10  817
1477473648.143:    415  79  10  817
1477473648.144:    414  79  10  817
1477473648.145:    441  79  10  817
1477473648.145:    485  79  10  817
1477473648.146:    519  79  10  817
1477473648.146:    524  79  10  817
1477473648.147:    512  79  10  817
1477473648.147:    504  79  10  817
1477473648.148:    509  79  10  817
1477473648.148:    507  79  10  817
1477473648.150:    487  79  10  817
1477473648.151:    456  79  10  817
1477473648.152:    434  79  10  817
1477473648.154:    426  79  10  817
1477473648.155:    417  79  10  817
1477473648.156:    397  79  10  817
1477473648.158:    373  79  10  817
1477473648.163:    361  79  10  817
1477473648.164:    367  79  10  817
1477473648.164:    383  79  10  817
1477473648.166:    393  79  10  817
1477473648.175:    388  79  10  817
1477473648.192:    371  79  10  817
1477473648.192:    346  79  10  817
1477473648.193:    314  79  10  817
1477473648.194:    283  79  10  817
1477473648.202:    257  78  10  817
1477473648.202:    235  78  10  817
1477473648.215:    211  78  10  817
1477473648.216:    179  78  10  817
1477473648.216:    143  78  10  817
1477473648.217:    121  78  10  817
1477473648.217:    123  78  10  817
1477473648.217:    145  78  10  817
1477473648.217:    166  78  10  817
1477473648.218:    170  78  10  817
1477473648.218:    155  78  10  817
1477473648.219:    135  78  10  817
1477473648.219:    128  78  10  817
1477473648.219:    139  78  10  817
1477473648.219:    150  78  10  817
1477473648.219:    135  78  10  817
1477473648.220:     90  78  10  817
1477473648.220:     39  78  10  817
1477473648.220:     15  78  10  817
1477473648.220:     22  78  10  817
1477473648.221:     29  78  10  817
1477473648.221:      8  78  10  817
1477473648.221:    -34  78  10  817
1477473648.222:    -56  78  10  817
1477473648.224:    -35  78  10  817
1477473648.226:      5  78  10  817
1477473648.235:     20  78  10  817
1477473648.235:     -7  78  10  817
1477473648.235:    -54  78  10  817
1477473648.239:    -80  78  10  817
1477473648.239:    -74  78  10  817
1477473648.240:    -56  78  10  817
1477473648.243:    -54  78  10  817
1477473648.243:    -80  78  10  817
1477473648.253:   -126  78  10  817
1477473648.253:   -172  78  10  817
1477473648.253:   -198  78  10  817
1477473648.254:   -201  78  10  817
1477473648.255:   -198  78  10  817
1477473648.256:   -215  78  10  817
1477473648.257:   -257  78  10  817
1477473648.260:   -303  78  10  817
1477473648.260:   -326  78  10  817
1477473648.262:   -325  78  10  817
1477473648.264:   -323  78  10  817
1477473648.278:   -342  78  10  817
1477473648.302:   -378  78  10  817
1477473648.302:   -406  78  10  817
1477473648.303:   -412  78  10  817
1477473648.303:   -405  78  10  817
1477473648.303:   -400  78  10  817
1477473648.304:   -406  78  10  817
1477473648.304:   -420  78  10  817
1477473648.304:   -437  78  10  817
1477473648.305:   -453  78  10  817
1477473648.305:   -468  78  10  817
1477473648.305:   -478  78  10  817
1477473648.305:   -486  78  10  817
1477473648.306:   -494  78  10  817
1477473648.306:   -505  78  10  817
1477473648.306:   -516  78  10  817
1477473648.307:   -523  78  10  817
1477473648.307:   -528  78  10  817
1477473648.307:   -535  78  10  817
1477473648.308:   -545  78  10  817
1477473648.308:   -548  78  10  817
1477473648.311:   -534  78  10  817
1477473648.311:   -498  78  10  817
1477473648.311:   -455  78  10  817
1477473648.312:   -424  78  10  817
1477473648.318:   -412  78  10  817
1477473648.318:   -404  78  10  817
1477473648.332:   -380  78  10  817
1477473648.332:   -339  78  10  817
1477473648.333:   -300  78  10  817
1477473648.333:   -284  78  10  817
1477473648.333:   -290  78  10  817
1477473648.334:   -294  78  10  817
1477473648.334:   -276  78  10  817
1477473648.335:   -235  78  10  817
1477473648.336:   -188  78  10  817
1477473648.338:   -149  78  10  817
1477473648.339:   -122  78  10  817
1477473648.344:   -102  78  10  817
1477473648.355:    -83  78  10  817
1477473648.355:    -64  78  10  817
1477473648.356:    -45  78  10  817
1477473648.356:    -27  78  10  817
1477473648.357:    -11  78  10  817
1477473648.357:     -4  78  10  817
1477473648.358:     -3  78  10  817
1477473648.363:     -1  78  10  817
1477473648.363:     13  78  10  817
1477473648.363:     39  78  10  817
1477473648.363:     69  78  10  817
1477473648.364:     97  78  10  817
1477473648.366:    127  78  10  817
1477473648.368:    166  78  10  817
1477473648.374:    214  78  10  817
1477473648.375:    262  78  10  817
1477473648.387:    299  78  10  817
1477473648.387:    323  78  10  817
1477473648.387:    340  78  10  817
1477473648.388:    354  78  10  817
1477473648.388:    370  78  10  817
1477473648.388:    389  78  10  817
1477473648.388:    412  78  10  817
1477473648.388:    434  78  10  817
1477473648.389:    451  78  10  817
1477473648.391:    464  78  10  817
1477473648.393:    480  78  10  817
1477473648.396:    506  78  10  817
1477473648.400:    537  78  10  817
1477473648.400:    561  78  10  817
1477473648.402:    566  78  10  817
1477473648.403:    556  78  10  817
1477473648.405:    546  78  10  817
1477473648.410:    545  78  10  817
1477473648.413:    548  78  10  817
1477473648.419:    546  78  10  817
1477473648.429:    534  78  10  817
1477473648.430:    519  78  10  817
1477473648.431:    505  78  10  817
1477473648.432:    490  78  10  817
1477473648.433:    469  78  10  817
1477473648.433:    442  78  10  817
1477473648.434:    416  78  10  817
1477473648.434:    395  78  10  817
1477473648.435:    374  78  10  817
1477473648.435:    345  78  10  817
1477473648.436:    309  78  10  817
1477473648.437:    275  78  10  817
1477473648.447:    252  78  10  817
1477473648.448:    240  78  10  817
1477473648.450:    228  78  10  817
1477473648.452:    210  78  10  817
1477473648.454:    189  78  10  817
1477473648.456:    177  78  10  817
1477473648.457:    175  78  10  817
1477473648.457:    175  78  10  817
1477473648.468:    170  78  10  817
1477473648.468:    158  78  10  817
1477473648.469:    142  78  10  817
1477473648.469:    126  78  10  817
1477473648.469:    110  78  10  817
1477473648.470:     96  78  10  817
1477473648.470:     83  78  10  817
1477473648.470:     69  78  10  817
1477473648.470:     50  78  10  817
1477473648.471:     33  78  10  817
1477473648.472:     27  78  10  817
1477473648.473:     36  78  10  817
1477473648.476:     53  78  10  817
1477473648.480:     62  78  10  817
1477473648.486:     59  78  10  817
1477473648.486:     55  78  10  817
1477473648.487:     62  78  10  817
1477473648.488:     79  78  10  817
1477473648.488:     92  78  10  817
1477473648.490:     89  78  10  817
1477473648.492:     74  78  10  817
1477473648.495:     60  78  10  817
1477473648.554:     57  78  10  817
1477473648.555:     66  78  10  817
1477473648.555:     79  78  10  817
1477473648.555:     88  78  10  817
1477473648.556:     94  78  10  817
1477473648.557:    101  78  10  817
1477473648.557:    114  78  10  817
1477473648.557:    136  78  10  817
1477473648.557:    163  78  10  817
1477473648.558:    188  78  10  817
1477473648.559:    201  78  10  817
1477473648.559:    202  78  10  817
1477473648.559:    198  78  10  817
1477473648.559:    199  78  10  817
1477473648.559:    208  78  10  817
1477473648.559:    218  78  10  817
1477473648.573:    224  78  10  817
1477473648.573:    226  78  10  817
1477473648.573:    226  78  10  817
1477473648.574:    222  78  10  817
1477473648.575:    215  78  10  817
1477473648.576:    215  78  10  817
1477473648.576:    232  78  10  817
1477473648.576:    258  78  10  817
1477473648.576:    273  78  10  817
1477473648.576:    268  78  10  817
1477473648.576:    260  78  10  817
1477473648.577:    277  78  10  817
1477473648.577:    316  78  10  817
1477473648.577:    341  78  10  817
1477473648.577:    328  78  10  817
1477473648.577:    294  78  10  817
1477473648.577:    278  78  10  817
1477473648.578:    293  78  10  817
1477473648.578:    312  78  10  817
1477473648.578:    305  78  10  817
1477473648.578:    277  78  10  817
1477473648.578:    263  78  10  817
1477473648.578:    283  78  10  817
1477473648.578:    321  78  10  817
1477473648.579:    346  78  10  817
1477473648.579:    348  78  10  817
1477473648.579:    338  78  10  817
1477473648.582:    333  78  10  817
1477473648.593:    335  78  10  817
1477473648.594:    339  78  10  817
1477473648.594:    334  78  10  817
1477473648.595:    321  78  10  817
1477473648.597:    304  78  10  817
1477473648.597:    293  78  10  817
1477473648.598:    297  78  10  817
1477473648.598:    315  78  10  817
1477473648.599:    339  78  10  817
1477473648.602:    355  78  10  817
1477473648.612:    360  78  10  817
1477473648.612:    362  78  10  817
1477473648.613:    363  78  10  817
1477473648.613:    360  78  10  817
1477473648.613:    345  78  10  817
1477473648.616:    320  78  10  817
1477473648.619:    295  78  10  817
1477473648.622:    276  78  10  817
1477473648.623:    258  78  10  817
1477473648.624:    236  78  10  817
1477473648.626:    211  78  10  817
1477473648.629:    189  78  10  817
1477473648.629:    172  78  10  817
1477473648.630:    158  78  10  817
1477473648.634:    143  78  10  817
1477473648.636:    124  78  10  817
1477473648.651:    104  78  10  817
1477473648.652:     84  78  10  817
1477473648.652:     64  78  10  817
1477473648.652:     40  78  10  817
1477473648.652:      7  78  10  817
1477473648.652:    -33  78  10  817
1477473648.652:    -67  78  10  817
1477473648.653:    -84  78  10  817
1477473648.658:    -82  78  10  817
1477473648.658:    -73  78  10  817
1477473648.659:    -71  78  10  817
1477473648.659:    -76  78  10  817
1477473648.660:    -73  78  10  817
1477473648.660:    -50  78  10  817
1477473648.661:    -16  78  10  817
1477473648.665:     12  78  10  817
1477473648.673:     24  78  10  817
1477473648.673:     33  78  10  817
1477473648.674:     49  78  10  817
1477473648.674:     66  78  10  817
1477473648.675:     75  78  10  817
1477473648.675:     78  78  10  817
1477473648.683:     96  78  10  817
1477473648.686:    145  78  10  817
1477473648.687:    210  78  10  817
1477473648.687:    260  78  10  817
1477473648.688:    281  78  10  817
1477473648.692:    296  78  10  817
1477473648.693:    335  78  10  817
1477473648.694:    396  78  10  817
1477473648.711:    446  78  10  817
1477473648.711:    458  78  10  817
1477473648.711:    441  78  10  817
1477473648.711:    422  78  10  817
1477473648.711:    412  78  10  817
1477473648.711:    396  78  10  817
1477473648.711:    367  78  10  817
1477473648.711:    341  78  10  817
1477473648.712:    340  78  10  817
1477473648.712:    358  78  10  817
1477473648.712:    367  78  10  817
1477473648.713:    353  78  10  817
1477473648.718:    335  78  10  817
1477473648.720:    340  78  10  817
1477473648.721:    368  78  10  817
1477473648.723:    388  78  10  817
1477473648.733:    377  78  10  817
1477473648.733:    342  78  10  817
1477473648.733:    303  78  10  817
1477473648.733:    271  78  10  817
1477473648.735:    246  78  10  817
1477473648.736:    228  78  10  817
1477473648.738:    215  78  10  817
1477473648.741:    201  78  10  817
1477473648.742:    183  78  10  817
1477473648.744:    165  78  10  817
1477473648.755:    155  78  10  817
1477473648.755:    150  78  10  817
1477473648.756:    137  78  10  817
1477473648.756:    108  78  10  817
1477473648.757:     74  78  10  817
1477473648.757:     46  78  10  817
1477473648.757:     -9  78  10  817
1477473648.759:   -162  78  10  817
1477473648.761:   -495  78  10  817
1477473648.761:  -1034  78  10  817
1477473648.762:  -1721  78  10  817
1477473648.767:  -2439  78  10  817
1477473648.774:  -3072  78  10  817
1477473648.774:  -3552  78  10  817
1477473648.775:  -3875  78  10  817
1477473648.775:  -4054  78  10  817
1477473648.777:  -4075  78  10  817
1477473648.777:  -3896  78  10  817
1477473648.780:  -3489  78  10  817
1477473648.781:  -2880  78  10  817
1477473648.793:  -2145  78  10  817
1477473648.793:  -1375  78  10  817
1477473648.793:   -642  78  10  817
1477473648.793:     -5  78  10  817
1477473648.794:    486  78  10  817
1477473648.794:    817  78  10  817
1477473648.794:   1023  78  10  817
1477473648.796:   1171  78  10  817
1477473648.799:   1302  78  10  817
1477473648.800:   1401  78  10  817
1477473648.803:   1425  78  10  817
1477473648.804:   1360  78  10  817
1477473648.813:   1247  78  10  817
1477473648.813:   1151  78  10  817
1477473648.814:   1110  78  10  817
1477473648.815:   1105  78  10  817
1477473648.815:   1086  78  10  817
1477473648.817:   1018  78  10  817
1477473648.818:    902  78  10  817
1477473648.822:    776  78  10  817
1477473648.837:    689  78  10  817
1477473648.837:    666  78  10  817
1477473648.837:    700  78  10  817
1477473648.838:    768  78  10  817
1477473648.838:    833  78  10  817
1477473648.838:    863  78  10  817
1477473648.838:    850  78  10  817
1477473648.838:    808  78  10  817
1477473648.840:    762  78  10  817
1477473648.842:    735  78  10  817
1477473648.842:    729  78  10  817
1477473648.843:    740  78  10  817
1477473648.845:    759  78  10  817
1477473648.849:    774  78  10  817
1477473648.859:    774  78  10  817
1477473648.859:    746  78  10  817
1477473648.859:    697  78  10  817
1477473648.859:    651  78  10  817
1477473648.859:    628  78  10  817
1477473648.859:    629  78  10  817
1477473648.863:    633  78  10  817
1477473648.863:    627  78  10  817
1477473648.867:    615  78  10  817
1477473648.868:    609  78  10  817
1477473648.869:    611  78  10  817
1477473648.872:    606  78  10  817
1477473648.899:    585  78  10  817
1477473648.900:    559  78  10  817
1477473648.901:    549  78  10  817
1477473648.901:    564  78  10  817
1477473648.902:    581  78  10  817
1477473648.903:    573  78  10  817
1477473648.904:    536  78  10  817
1477473648.905:    498  78  10  817
1477473648.906:    488  78  10  817
1477473648.907:    506  78  10  817
1477473648.908:    521  78  10  817
1477473648.908:    505  78  10  817
1477473648.920:    465  78  10  817
1477473648.920:    434  78  10  817
1477473648.921:    430  78  10  817
1477473648.921:    445  78  10  817
1477473648.921:    452  78  10  817
1477473648.922:    438  78  10  817
1477473648.922:    415  78  10  817
1477473648.922:    402  78  10  817
1477473648.922:    404  78  10  817
1477473648.923:    407  78  10  817
1477473648.923:    396  78  10  817
1477473648.923:    376  78  10  817
1477473648.924:    358  78  10  817
1477473648.925:    348  78  10  817
1477473648.926:    338  78  10  817
1477473648.927:    315  78  10  817
1477473648.930:    282  78  10  817
1477473648.930:    260  78  10  817
1477473648.932:    265  78  10  817
1477473648.933:    290  78  10  817
1477473648.934:    304  78  10  817
1477473648.937:    290  78  10  817
1477473648.940:    259  78  10  817
1477473648.977:    244  78  10  817
1477473648.992:    262  78  10  817
1477473648.992:    291  78  10  817
1477473648.993:    295  78  10  817
1477473648.996:    261  78  10  817
1477473648.999:    211  78  10  817
1477473649.000:    175  78  10  817
1477473649.017:    164  78  10  817
1477473649.017:    159  78  10  817
1477473649.018:    140  78  10  817
1477473649.018:    107  78  10  817
1477473649.018:     79  78  10  817
1477473649.018:     70  78  10  806
1477473649.019:     75  78  10  806
1477473649.019:     77  78  10  806
1477473649.019:     66  78  10  806
1477473649.019:     52  78  10  806
1477473649.019:     46  78  10  806
1477473649.020:     43  78  10  806
1477473649.020:     27  78  10  806
1477473649.020:    -14  78  10  806
1477473649.020:    -66  78  10  806
1477473649.021:   -100  78  10  806
1477473649.021:   -107  78  10  806
1477473649.021:   -105  78  10  806
1477473649.022:   -120  78  10  806
1477473649.022:   -151  78  10  806
1477473649.022:   -177  78  10  806
1477473649.022:   -183  78  10  806
1477473649.023:   -177  78  10  806
1477473649.023:   -178  78  10  806
1477473649.023:   -192  78  10  806
1477473649.023:   -207  78  10  806
1477473649.024:   -218  78  10  806
1477473649.027:   -233  78  10  806
1477473649.027:   -264  78  10  806
1477473649.027:   -302  78  10  806
1477473649.027:   -331  78  10  806
1477473649.027:   -346  78  10  806
1477473649.028:   -356  78  10  806
1477473649.028:   -369  78  10  806
1477473649.028:   -385  78  10  806
1477473649.028:   -400  78  10  806
1477473649.029:   -411  78  10  806
1477473649.030:   -419  78  10  806
1477473649.032:   -420  78  10  806
1477473649.036:   -406  78  10  806
1477473649.056:   -387  78  10  806
1477473649.056:   -382  78  10  806
1477473649.057:   -397  78  10  806
1477473649.057:   -419  78  10  806
1477473649.057:   -422  78  10  806
1477473649.057:   -401  78  10  806
1477473649.058:   -371  78  10  806
1477473649.058:   -350  78  10  806
1477473649.058:   -338  78  10  806
1477473649.058:   -323  78  10  806
1477473649.058:   -297  78  10  806
1477473649.058:   -269  78  10  806
1477473649.058:   -249  78  10  806
1477473649.060:   -237  78  10  806
1477473649.063:   -225  78  10  806
1477473649.063:   -206  78  10  806
1477473649.065:   -188  78  10  806
1477473649.067:   -175  78  10  806
1477473649.078:   -166  78  10  806
1477473649.078:   -154  78  10  806
1477473649.078:   -133  78  10  806
1477473649.078:   -105  78  10  806
1477473649.078:    -75  78  10  806
1477473649.079:    -49  78  10  806
1477473649.083:    -32  78  10  806
1477473649.084:    -26  78  10  806
1477473649.087:    -26  78  10  806
1477473649.087:    -20  78  10  806
1477473649.090:      0  78  10  806
1477473649.090:     30  78  10  806
1477473649.102:     57  78  10  806
1477473649.103:     74  78  10  806
1477473649.104:     85  78  10  806
1477473649.104:    103  78  10  806
1477473649.105:    135  78  10  806
1477473649.105:    174  78  10  806
1477473649.106:    205  78  10  806
1477473649.132:    222  78  10  806
1477473649.134:    228  78  10  806
1477473649.135:    236  78  10  806
1477473649.137:    255  78  10  806
1477473649.140:    282  78  10  806
1477473649.149:    305  78  10  806
1477473649.150:    313  78  10  806
1477473649.150:    310  78  10  806
1477473649.150:    311  78  10  806
1477473649.151:    327  78  10  806
1477473649.151:    352  78  10  806
1477473649.151:    368  78  10  806
1477473649.151:    371  78  10  806
1477473649.151:    369  78  10  806
1477473649.152:    375  78  10  806
1477473649.152:    390  78  10  806
1477473649.152:    406  78  10  806
1477473649.152:    418  78  10  806
1477473649.153:    425  78  10  806
1477473649.153:    429  78  10  806
1477473649.153:    429  78  10  806
1477473649.153:    428  78  10  806
1477473649.154:    431  78  10  806
1477473649.154:    442  78  10  806
1477473649.156:    452  78  10  806
1477473649.157:    450  78  10  806
1477473649.159:    435  78  10  806
1477473649.171:    419  78  10  806
1477473649.171:    411  78  10  806
1477473649.171:    407  78  10  806
1477473649.171:    397  78  10  806
1477473649.172:    381  78  10  806
1477473649.172:    369  78  10  806
1477473649.172:    363  78  10  806
1477473649.173:    356  78  10  806
1477473649.178:    339  78  10  806
1477473649.178:    316  78  10  806
1477473649.181:    299  78  10  806
1477473649.182:    290  78  10  806
1477473649.183:    280  78  10  806
1477473649.184:    263  78  10  806
1477473649.185:    241  78  10  806
1477473649.188:    220  78  10  806
1477473649.190:    204  78  10  806
1477473649.195:    188  78  10  806
1477473649.195:    172  78  10  806
1477473649.197:    159  78  10  806
1477473649.198:    154  78  10  806
1477473649.199:    151  78  10  806
1477473649.202:    145  78  10  806
1477473649.204:    133  78  10  806
1477473649.215:    125  78  10  806
1477473649.216:    125  78  10  806
1477473649.216:    128  78  10  806
1477473649.216:    123  78  10  806
1477473649.216:    112  78  10  806
1477473649.217:    102  78  10  806
1477473649.220:    102  78  10  806
1477473649.222:    104  78  10  806
1477473649.222:     98  78  10  806
1477473649.226:     85  78  10  806
1477473649.247:     81  78  10  806
1477473649.247:     93  78  10  806
1477473649.247:    106  78  10  806
1477473649.248:    102  78  10  806
1477473649.248:     84  78  10  806
1477473649.248:     74  78  10  806
1477473649.248:     87  78  10  806
1477473649.249:    110  78  10  806
1477473649.249:    123  78  10  806
1477473649.249:    120  78  10  806
1477473649.249:    114  78  10  806
1477473649.252:    116  78  10  806
1477473649.253:    123  78  10  806
1477473649.254:    128  78  10  806
1477473649.257:    132  78  10  806
1477473649.257:    140  78  10  806
1477473649.258:    151  78  10  806
1477473649.259:    152  78  10  806
1477473649.274:    141  78  10  806
1477473649.274:    133  78  10  806
1477473649.274:    141  78  10  806
1477473649.274:    160  78  10  806
1477473649.274:    169  78  10  806
1477473649.274:    161  78  10  806
1477473649.275:    152  78  10  806
1477473649.277:    162  78  10  806
1477473649.278:    187  78  10  806
1477473649.281:    206  78  10  806
1477473649.282:    204  78  10  806
1477473649.283:    191  78  10  806
1477473649.284:    189  78  10  806
1477473649.287:    208  78  10  806
1477473649.288:    237  78  10  806
1477473649.291:    257  78  10  806
1477473649.305:    264  78  10  806
1477473649.305:    265  78  10  806
1477473649.305:    270  78  10  806
1477473649.305:    278  78  10  806
1477473649.305:    285  78  10  806
1477473649.305:    291  78  10  806
1477473649.307:    293  78  10  806
1477473649.311:    291  78  10  806
1477473649.312:    281  78  10  806
1477473649.312:    270  78  10  806
1477473649.316:    269  78  10  806
1477473649.317:    281  78  10  806
1477473649.318:    293  78  10  806
1477473649.319:    295  78  10  806
1477473649.372:    285  78  10  806
1477473649.372:    276  78  10  806
1477473649.372:    277  78  10  806
1477473649.372:    287  78  10  806
1477473649.373:    295  78  10  806
1477473649.373:    300  78  10  806
1477473649.373:    306  78  10  806
1477473649.373:    312  78  10  806
1477473649.373:    313  78  10  806
1477473649.373:    308  78  10  806
1477473649.373:    305  78  10  806
1477473649.374:    307  78  10  806
1477473649.374:    310  78  10  806
1477473649.374:    306  78  10  806
1477473649.374:    298  78  10  806
1477473649.374:    293  78  10  806
1477473649.374:    295  78  10  806
1477473649.375:    295  78  10  806
1477473649.375:    287  78  10  806
1477473649.375:    274  78  10  806
1477473649.375:    266  78  10  806
1477473649.375:    269  78  10  806
1477473649.375:    276  78  10  806
1477473649.375:    281  78  10  806
1477473649.376:    281  78  10  806
1477473649.376:    281  78  10  806
1477473649.376:    280  78  10  806
1477473649.376:    269  78  10  806
1477473649.376:    250  78  10  806
1477473649.379:    231  78  10  806
1477473649.395:    221  78  10  806
1477473649.395:    214  78  10  806
1477473649.395:    199  78  10  806
1477473649.395:    171  78  10  806
1477473649.395:    141  78  10  806
1477473649.395:    121  78  10  806
1477473649.396:    113  78  10  806
1477473649.396:    108  78  10  806
1477473649.396:     91  78  10  806
1477473649.397:     55  78  10  806
1477473649.398:      8  78  10  806
1477473649.401:    -38  78  10  806
1477473649.402:    -72  78  10  806
1477473649.405:    -94  78  10  806
1477473649.425:   -114  78  10  806
1477473649.425:   -138  78  10  806
1477473649.425:   -152  78  10  806
1477473649.425:   -140  78  10  806
1477473649.425:   -102  78  10  806
1477473649.425:    -57  78  10  806
1477473649.426:    -28  78  10  806
1477473649.426:    -11  78  10  806
1477473649.426:     13  78  10  806
1477473649.426:     56  78  10  806
1477473649.428:    100  78  10  806
1477473649.429:    123  78  10  806
1477473649.430:    125  78  10  806
1477473649.434:    127  78  10  806
1477473649.435:    154  78  10  806
1477473649.438:    204  78  10  806
1477473649.438:    262  78  10  806
1477473649.439:    309  78  10  806
1477473649.442:    340  78  10  806
1477473649.443:    361  78  10  806
1477473649.454:    380  78  10  806
1477473649.454:    401  78  10  806
1477473649.454:    420  78  10  806
1477473649.454:    427  78  10  806
1477473649.455:    419  78  10  806
1477473649.455:    398  78  10  806
1477473649.460:    377  78  10  806
1477473649.460:    369  78  10  806
1477473649.462:    371  78  10  806
1477473649.463:    366  78  10  806
1477473649.464:    348  78  10  806
1477473649.467:    327  78  10  806
1477473649.470:    324  78  10  806
1477473649.474:    339  78  10  806
1477473649.474:    349  78  10  806
1477473649.476:    329  78  10  806
1477473649.487:    292  78  10  806
1477473649.487:    272  78  10  806
1477473649.487:    286  78  10  806
1477473649.487:    303  78  10  806
1477473649.488:    284  78  10  806
1477473649.491:    224  78  10  806
1477473649.491:    165  78  10  806
1477473649.491:    143  78  10  806
1477473649.492:    145  78  10  806
1477473649.499:    132  78  10  806
1477473649.507:     93  78  10  806
1477473649.507:     51  78  10  806
1477473649.507:     31  78  10  806
1477473649.507:     27  78  10  806
1477473649.508:     17  78  10  806
1477473649.509:      0  78  10  806
1477473649.509:    -11  78  10  806
1477473649.515:    -36  78  10  806
1477473649.516:   -142  78  10  806
1477473649.518:   -415  78  10  806
1477473649.518:   -899  78  10  806
1477473649.523:  -1556  78  10  806
1477473649.535:  -2288  78  10  806
1477473649.536:  -2980  78  10  806
1477473649.536:  -3549  78  10  806
1477473649.536:  -3964  78  10  806
1477473649.536:  -4221  78  10  806
1477473649.536:  -4305  78  10  806
1477473649.536:  -4183  78  10  806
1477473649.536:  -3825  78  10  806
1477473649.537:  -3248  78  10  806
1477473649.538:  -2521  78  10  806
1477473649.542:  -1727  78  10  806
1477473649.543:   -936  78  10  806
1477473649.546:   -206  78  10  806
1477473649.546:    396  78  10  806
1477473649.567:    824  78  10  806
1477473649.567:   1086  78  10  806
1477473649.567:   1251  78  10  806
1477473649.567:   1383  78  10  806
1477473649.568:   1490  78  10  806
1477473649.568:   1526  78  10  806
1477473649.568:   1456  78  10  806
1477473649.568:   1306  78  10  806
1477473649.569:   1153  78  10  806
1477473649.569:   1060  78  10  806
1477473649.569:   1029  78  10  806
1477473649.571:   1015  78  10  806
1477473649.571:    974  78  10  806
1477473649.577:    891  78  10  806
1477473649.577:    788  78  10  806
1477473649.578:    706  78  10  806
1477473649.579:    677  78  10  806
1477473649.581:    708  78  10  806
1477473649.584:    781  78  10  806
1477473649.585:    852  78  10  806
1477473649.589:    880  78  10  806
1477473649.589:    851  78  10  806
1477473649.591:    788  78  10  806
1477473649.592:    724  78  10  806
1477473649.595:    678  78  10  806
1477473649.597:    651  78  10  806
1477473649.600:    637  78  10  806
1477473649.604:    643  78  10  806
1477473649.618:    671  78  10  806
1477473649.618:    704  78  10  806
1477473649.618:    710  78  10  806
1477473649.618:    677  78  10  806
1477473649.619:    631  78  10  806
1477473649.619:    606  78  10  806
1477473649.620:    613  78  10  806
1477473649.620:    628  78  10  806
1477473649.621:    625  78  10  806
1477473649.622:    609  78  10  806
1477473649.626:    597  78  10  806
1477473649.627:    596  78  10  806
1477473649.638:    589  78  10  806
1477473649.639:    564  78  10  806
1477473649.639:    534  78  10  806
1477473649.639:    523  78  10  806
1477473649.639:    536  78  10  806
1477473649.640:    553  78  10  806
1477473649.641:    554  78  10  806
1477473649.641:    538  78  10  806
1477473649.644:    520  78  10  806
1477473649.644:    511  78  10  806
1477473649.646:    507  78  10  806
1477473649.651:    500  78  10  806
1477473649.652:    489  78  10  806
1477473649.657:    474  78  10  806
1477473649.664:    458  78  10  806
1477473649.665:    442  78  10  806
1477473649.666:    430  78  10  806
1477473649.666:    426  78  10  806
1477473649.667:    427  78  10  806
1477473649.667:    424  78  10  806
1477473649.667:    416  78  10  806
1477473649.668:    410  78  10  806
1477473649.683:    412  78  10  806
1477473649.684:    419  78  10  806
1477473649.684:    419  78  10  806
1477473649.684:    408  78  10  806
1477473649.685:    394  78  10  806
1477473649.685:    385  78  10  806
1477473649.685:    380  78  10  806
1477473649.686:    371  78  10  806
1477473649.686:    355  78  10  806
1477473649.689:    339  78  10  806
1477473649.689:    330  78  10  806
1477473649.695:    330  78  10  806
1477473649.707:    331  78  10  806
1477473649.708:    327  79  10  785
1477473649.708:    316  79  10  785
1477473649.708:    302  79  10  785
1477473649.708:    289  79  10  785
1477473649.708:    277  79  10  785
1477473649.708:    261  79  10  785
1477473649.708:    239  79  10  785
1477473649.709:    212  79  10  785
1477473649.713:    189  79  10  785
1477473649.713:    177  79  10  785
1477473649.719:    174  79  10  785
1477473649.719:    170  79  10  785
1477473649.722:    161  79  10  785
1477473649.722:    149  79  10  785
1477473649.726:    139  79  10  785
1477473649.726:    132  79  10  785
1477473649.728:    124  79  10  785
1477473649.729:    112  79  10  785
1477473649.730:     99  79  10  785
1477473649.736:     86  79  10  785
1477473649.737:     70  79  10  785
1477473649.751:     44  79  10  785
1477473649.751:     10  79  10  785
1477473649.751:    -19  79  10  785
1477473649.751:    -31  79  10  785
1477473649.752:    -29  79  10  785
1477473649.752:    -26  79  10  785
1477473649.752:    -40  79  10  785
1477473649.757:    -67  79  10  785
1477473649.758:    -95  79  10  785
1477473649.762:   -107  79  10  785
1477473649.772:   -108  79  10  785
1477473649.772:   -110  79  10  785
1477473649.773:   -127  79  10  785
1477473649.773:   -157  79  10  785
1477473649.773:   -190  79  10  785
1477473649.773:   -215  79  10  785
1477473649.773:   -225  79  10  785
1477473649.773:   -224  79  10  785
1477473649.775:   -219  79  10  785
1477473649.775:   -220  79  10  785
1477473649.777:   -232  79  10  785
1477473649.781:   -253  79  10  785
1477473649.781:   -270  79  10  785
1477473649.782:   -277  79  10  785
1477473649.784:   -278  79  10  785
1477473649.789:   -285  79  10  785
1477473649.789:   -301  79  10  785
1477473649.791:   -321  79  10  785
1477473649.795:   -334  79  10  785
1477473649.795:   -337  79  10  785
1477473649.809:   -331  79  10  785
1477473649.810:   -323  79  10  785
1477473649.810:   -317  79  10  785
1477473649.810:   -310  79  10  785
1477473649.810:   -298  79  10  785
1477473649.810:   -280  79  10  785
1477473649.810:   -257  79  10  785
1477473649.811:   -237  79  10  785
1477473649.811:   -224  79  10  785
1477473649.813:   -214  79  10  785
1477473649.815:   -196  79  10  785
1477473649.817:   -169  79  10  785
1477473649.821:   -142  79  10  785
1477473649.822:   -124  79  10  785
1477473649.823:   -115  79  10  785
1477473649.824:   -106  79  10  785
1477473649.841:    -89  79  10  785
1477473649.841:    -66  79  10  785
1477473649.841:    -45  79  10  785
1477473649.842:    -30  79  10  785
1477473649.842:    -19  79  10  785
1477473649.842:     -6  79  10  785
1477473649.843:     10  79  10  785
1477473649.844:     25  79  10  785
1477473649.846:     39  79  10  785
1477473649.847:     54  79  10  785
1477473649.851:     71  79  10  785
1477473649.852:     90  79  10  785
1477473649.853:    112  79  10  785
1477473649.854:    138  79  10  785
1477473649.857:    161  79  10  785
1477473649.861:    179  79  10  785
1477473649.862:    191  79  10  785
1477473649.863:    203  79  10  785
1477473649.865:    222  79  10  785
1477473649.867:    245  79  10  785
1477473649.868:    262  79  10  785
1477473649.869:    272  79  10  785
1477473649.871:    280  79  10  785
1477473649.871:    293  79  10  785
1477473649.887:    311  79  10  785
1477473649.887:    329  79  10  785
1477473649.888:    348  79  10  785
1477473649.888:    374  79  10  785
1477473649.888:    405  79  10  785
1477473649.889:    429  79  10  785
1477473649.890:    436  79  10  785
1477473649.890:    436  79  10  785
1477473649.891:    447  79  10  785
1477473649.892:    475  79  10  785
1477473649.898:    503  79  10  785
1477473649.898:    512  79  10  785
1477473649.911:    502  79  10  785
1477473649.911:    492  79  10  785
1477473649.911:    496  79  10  785
1477473649.911:    508  79  10  785
1477473649.911:    512  79  10  785
1477473649.911:    506  79  10  785
1477473649.911:    498  79  10  785
1477473649.911:    492  79  10  785
1477473649.913:    488  79  10  785
1477473649.915:    480  79  10  785
1477473649.918:    468  79  10  785
1477473649.921:    457  79  10  785
1477473649.923:    449  79  10  785
1477473649.923:    437  79  10  785
1477473649.927:    417  79  10  785
1477473649.927:    389  79  10  785
1477473649.929:    364  79  10  785
1477473649.930:    348  79  10  785
1477473649.934:    338  79  10  785
1477473649.936:    324  79  10  785
1477473649.936:    302  79  10  785
1477473649.940:    278  79  10  785
1477473649.955:    263  79  10  785
1477473649.955:    257  79  10  785
1477473649.955:    251  79  10  785
1477473649.978:    236  79  10  785
1477473649.988:    216  79  10  785
1477473649.988:    201  79  10  785
1477473649.988:    191  79  10  785
1477473649.988:    179  79  10  785
1477473649.988:    159  79  10  785
1477473649.988:    138  79  10  785
1477473649.988:    122  79  10  785
1477473649.990:    114  79  10  785
1477473649.993:    104  79  10  785
1477473649.993:     89  79  10  785
1477473649.993:     76  79  10  785
1477473649.993:     70  79  10  785
1477473649.994:     69  79  10  785
1477473649.994:     66  79  10  785
1477473649.994:     60  79  10  785
1477473649.994:     56  79  10  785
1477473649.994:     56  79  10  785
1477473649.995:     57  79  10  785
1477473649.995:     54  79  10  785
1477473649.997:     49  79  10  785
1477473649.997:     44  79  10  785
1477473649.997:     43  79  10  785
1477473649.997:     43  79  10  785
1477473650.000:     42  79  10  785
1477473650.001:     43  79  10  785
1477473650.001:     48  79  10  785
1477473650.003:     57  79  10  785
1477473650.004:     68  79  10  785
1477473650.004:     83  79  10  785
1477473650.006:    102  79  10  785
1477473650.007:    124  79  10  785
1477473650.053:    141  79  10  785
1477473650.059:    150  79  10  785
1477473650.059:    154  79  10  785
1477473650.059:    157  79  10  785
1477473650.060:    160  79  10  785
1477473650.060:    160  79  10  785
1477473650.060:    157  79  10  785
1477473650.060:    154  79  10  785
1477473650.061:    154  79  10  785
1477473650.061:    161  79  10  785
1477473650.061:    172  79  10  785
1477473650.061:    189  79  10  785
1477473650.061:    210  79  10  785
1477473650.061:    232  79  10  785
1477473650.062:    251  79  10  785
1477473650.062:    261  79  10  785
1477473650.062:    266  79  10  785
1477473650.062:    271  79  10  785
1477473650.062:    276  79  10  785
1477473650.062:    278  79  10  785
1477473650.063:    277  79  10  785
1477473650.063:    276  79  10  785
1477473650.063:    278  79  10  785
1477473650.063:    282  79  10  785
1477473650.063:    285  79  10  785
1477473650.063:    287  79  10  785
1477473650.064:    289  79  10  785
1477473650.068:    295  79  10  785
1477473650.069:    302  79  10  785
1477473650.073:    305  79  10  785
1477473650.076:    302  79  10  785
1477473650.076:    295  79  10  785
1477473650.077:    292  79  10  785
1477473650.078:    295  79  10  785
1477473650.080:    299  79  10  785
1477473650.099:    296  79  10  785
1477473650.100:    283  79  10  785
1477473650.100:    268  79  10  785
1477473650.100:    261  79  10  785
1477473650.100:    267  79  10  785
1477473650.101:    277  79  10  785
1477473650.101:    279  79  10  785
1477473650.101:    272  79  10  785
1477473650.102:    265  79  10  785
1477473650.102:    268  79  10  785
1477473650.103:    280  79  10  785
1477473650.103:    290  79  10  785
1477473650.105:    289  79  10  785
1477473650.106:    277  79  10  785
1477473650.107:    264  79  10  785
1477473650.108:    258  79  10  785
1477473650.109:    259  79  10  785
1477473650.114:    263  79  10  785
1477473650.114:    265  79  10  785
1477473650.115:    260  79  10  785
1477473650.130:    251  79  10  785
1477473650.130:    243  79  10  785
1477473650.130:    243  79  10  785
1477473650.131:    254  79  10  785
1477473650.131:    269  79  10  785
1477473650.131:    279  79  10  785
1477473650.131:    282  79  10  785
1477473650.135:    283  79  10  785
1477473650.136:    287  79  10  785
1477473650.137:    294  79  10  785
1477473650.138:    296  79  10  785
1477473650.140:    291  79  10  785
1477473650.149:    284  79  10  785
1477473650.149:    283  79  10  785
1477473650.150:    285  79  10  785
1477473650.150:    284  79  10  785
1477473650.152:    276  79  10  785
1477473650.153:    266  79  10  785
1477473650.154:    264  79  10  785
1477473650.155:    272  79  10  785
1477473650.157:    280  79  10  785
1477473650.158:    282  79  10  785
1477473650.162:    278  79  10  785
1477473650.164:    271  79  10  785
1477473650.164:    267  79  10  785
1477473650.170:    263  79  10  785
1477473650.174:    262  79  10  785
1477473650.179:    266  79  10  785
1477473650.198:    274  79  10  785
1477473650.198:    280  79  10  785
1477473650.198:    279  79  10  785
1477473650.198:    274  79  10  785
1477473650.199:    270  79  10  785
1477473650.200:    268  79  10  785
1477473650.200:    265  79  10  785
1477473650.201:    260  79  10  785
1477473650.201:    256  79  10  785
1477473650.201:    258  79  10  785
1477473650.206:    261  79  10  785
1477473650.210:    259  79  10  785
1477473650.211:    252  79  10  785
1477473650.215:    251  79  10  785
1477473650.232:    258  79  10  785
1477473650.232:    264  79  10  785
1477473650.232:    252  79  10  785
1477473650.232:    224  79  10  785
1477473650.232:    200  79  10  785
1477473650.232:    195  79  10  785
1477473650.233:    200  79  10  785
1477473650.233:    191  79  10  785
1477473650.233:    161  79  10  785
1477473650.233:    129  79  10  785
1477473650.233:    115  79  10  785
1477473650.233:    115  79  10  785
1477473650.233:    103  79  10  785
1477473650.234:     59  79  10  785
1477473650.234:     -5  79  10  785
1477473650.234:    -68  79  10  785
1477473650.236:   -116  79  10  785
1477473650.238:   -154  79  10  785
1477473650.242:   -188  79  10  785
1477473650.246:   -215  79  10  785
1477473650.247:   -226  79  10  785
1477473650.251:   -222  79  10  785
1477473650.277:   -209  79  10  785
1477473650.277:   -187  79  10  785
1477473650.277:   -152  79  10  785
1477473650.277:   -102  79  10  785
1477473650.278:    -55  79  10  785
1477473650.278:    -26  79  10  785
1477473650.278:    -14  79  10  785
1477473650.278:     -4  79  10  785
1477473650.278:     16  79  10  785
1477473650.278:     41  79  10  785
1477473650.278:     63  79  10  785
1477473650.279:     79  79  10  785
1477473650.279:    101  79  10  785
1477473650.279:    139  79  10  785
1477473650.279:    192  79  10  785
1477473650.279:    249  79  10  785
1477473650.280:    297  79  10  785
1477473650.280:    332  79  10  785
1477473650.281:    356  79  10  785
1477473650.282:    373  79  10  785
1477473650.283:    387  79  10  785
1477473650.287:    395  79  10  785
1477473650.288:    391  79  10  785
1477473650.292:    371  79  10  785
1477473650.311:    342  79  10  785
1477473650.311:    319  79  10  785
1477473650.311:    310  79  10  785
1477473650.312:    310  79  10  785
1477473650.312:    307  79  10  785
1477473650.312:    292  79  10  785
1477473650.312:    271  79  10  785
1477473650.312:    254  79  10  785
1477473650.312:    248  79  10  785
1477473650.313:    249  79  10  785
1477473650.313:    252  79  10  785
1477473650.316:    248  79  10  785
1477473650.319:    229  79  10  785
1477473650.319:    192  79  10  785
1477473650.320:    146  79  10  785
1477473650.323:    110  79  10  785
1477473650.333:     86  79  10  785
1477473650.334:     64  79  10  785
1477473650.357:     32  79  10  785
1477473650.358:      2  79  10  785
1477473650.358:    -11  79  10  785
1477473650.358:     -9  79  10  785
1477473650.359:    -12  79  10  785
1477473650.360:    -35  79  10  785
1477473650.360:    -65  79  10  785
1477473650.361:    -82  79  10  785
1477473650.361:   -109  79  10  785
1477473650.362:   -226  79  10  785
1477473650.362:   -522  79  10  785
1477473650.362:  -1035  79  10  785
1477473650.363:  -1707  79  10  785
1477473650.363:  -2426  79  10  785
1477473650.364:  -3083  79  10  785
1477473650.366:  -3617  79  10  785
1477473650.366:  -4013  79  10  785
1477473650.366:  -4262  79  10  785
1477473650.367:  -4330  79  10  785
1477473650.368:  -4172  79  10  785
1477473650.368:  -3766  79  10  785
1477473650.377:  -3135  79  10  785
1477473650.378:  -2341  79  10  785
1477473650.378:  -1465  79  10  785
1477473650.379:   -594  79  10  785
1477473650.379:    176  79  10  785
1477473650.385:    765  79  10  785
1477473650.385:   1148  79  10  785
1477473650.398:   1370  79  10  785
1477473650.415:   1506  79  10  785
1477473650.417:   1595  79  10  785
1477473650.420:   1612  79  10  785
1477473650.421:   1528  79  10  785
1477473650.421:   1355  79  10  785
1477473650.421:   1159  79  10  785
1477473650.422:   1011  79  10  785
1477473650.422:    937  79  10  785
1477473650.422:    915  79  10  785
1477473650.423:    902  79  10  785
1477473650.423:    866  79  10  785
1477473650.426:    797  79  10  785
1477473650.427:    706  79  10  785
1477473650.427:    627  79  10  785
1477473650.427:    598  79  10  785
1477473650.427:    630  79  10  785
1477473650.428:    702  79  10  785
1477473650.428:    763  79  10  785
1477473650.428:    775  79  10  785
1477473650.428:    740  79  10  785
1477473650.429:    686  79  10  785
1477473650.429:    642  79  10  785
1477473650.429:    618  79  10  785
1477473650.430:    605  79  10  785
1477473650.431:    598  79  10  785
1477473650.437:    602  79  10  785
1477473650.437:    618  79  10  785
1477473650.439:    629  79  10  785
1477473650.440:    616  79  10  785
1477473650.443:    581  79  10  785
1477473650.445:    546  79  10  785
1477473650.446:    531  79  10  785
1477473650.458:    536  79  10  785
1477473650.465:    546  79  10  785
1477473650.465:    551  79  10  785
1477473650.465:    552  76  10  774
1477473650.466:    552  76  10  774
1477473650.466:    547  76  10  774
1477473650.466:    534  76  10  774
1477473650.466:    518  76  10  774
1477473650.466:    508  76  10  774
1477473650.467:    508  76  10  774
1477473650.469:    508  76  10  774
1477473650.469:    502  76  10  774
1477473650.474:    490  76  10  774
1477473650.475:    479  76  10  774
1477473650.480:    470  76  10  774
1477473650.492:    463  76  10  774
1477473650.492:    457  76  10  774
1477473650.492:    454  76  10  774
1477473650.493:    452  76  10  774
1477473650.493:    446  76  10  774
1477473650.493:    438  76  10  774
1477473650.493:    431  76  10  774
1477473650.493:    430  76  10  774
1477473650.494:    429  76  10  774
1477473650.496:    421  76  10  774
1477473650.497:    404  76  10  774
1477473650.498:    390  76  10  774
1477473650.503:    386  76  10  774
1477473650.504:    388  76  10  774
1477473650.515:    382  76  10  774
1477473650.516:    363  76  10  774
1477473650.516:    341  76  10  774
1477473650.516:    329  76  10  774
1477473650.516:    327  76  10  774
1477473650.516:    326  76  10  774
1477473650.517:    318  76  10  774
1477473650.522:    303  76  10  774
1477473650.523:    290  76  10  774
1477473650.524:    282  76  10  774
1477473650.526:    278  76  10  774
1477473650.527:    270  76  10  774
1477473650.541:    257  76  10  774
1477473650.541:    241  76  10  774
1477473650.542:    228  76  10  774
1477473650.542:    220  76  10  774
1477473650.542:    213  76  10  774
1477473650.543:    202  76  10  774
1477473650.543:    187  76  10  774
1477473650.543:    172  76  10  774
1477473650.543:    160  76  10  774
1477473650.544:    151  76  10  774
1477473650.545:    143  76  10  774
1477473650.547:    135  76  10  774
1477473650.550:    126  76  10  774
1477473650.559:    114  76  10  774
1477473650.561:    101  76  10  774
1477473650.562:     87  76  10  774
1477473650.562:     76  76  10  774
1477473650.568:     62  76  10  774
1477473650.570:     39  76  10  774
1477473650.570:      9  76  10  774
1477473650.577:    -19  76  10  774
1477473650.578:    -36  76  10  774
1477473650.580:    -46  76  10  774
1477473650.581:    -62  76  10  774
1477473650.581:    -86  76  10  774
1477473650.581:   -112  76  10  774
1477473650.581:   -130  76  10  774
1477473650.583:   -145  76  10  774
1477473650.584:   -164  76  10  774
1477473650.586:   -187  76  10  774
1477473650.587:   -203  76  10  774
1477473650.588:   -207  76  10  774
1477473650.590:   -211  76  10  774
1477473650.591:   -229  76  10  774
1477473650.595:   -259  76  10  774
1477473650.595:   -284  76  10  774
1477473650.597:   -292  76  10  774
1477473650.598:   -293  76  10  774
1477473650.624:   -303  76  10  774
1477473650.625:   -327  76  10  774
1477473650.625:   -353  76  10  774
1477473650.625:   -368  76  10  774
1477473650.625:   -376  76  10  774
1477473650.625:   -382  76  10  774
1477473650.626:   -388  76  10  774
1477473650.626:   -388  76  10  774
1477473650.626:   -384  76  10  774
1477473650.626:   -385  76  10  774
1477473650.627:   -397  76  10  774
1477473650.627:   -413  76  10  774
1477473650.627:   -416  76  10  774
1477473650.627:   -404  76  10  774
1477473650.630:   -387  76  10  774
1477473650.630:   -379  76  10  774
1477473650.632:   -378  76  10  774
1477473650.633:   -374  76  10  774
1477473650.634:   -361  76  10  774
1477473650.638:   -343  76  10  774
1477473650.652:   -328  76  10  774
1477473650.652:   -314  76  10  774
1477473650.652:   -295  76  10  774
1477473650.652:   -273  76  10  774
1477473650.652:   -254  76  10  774
1477473650.653:   -242  76  10  774
1477473650.653:   -231  76  10  774
1477473650.653:   -211  76  10  774
1477473650.658:   -180  76  10  774
1477473650.658:   -148  76  10  774
1477473650.660:   -124  76  10  774
1477473650.661:   -111  76  10  774
1477473650.662:   -106  76  10  774
1477473650.667:   -102  76  10  774
1477473650.667:    -94  76  10  774
1477473650.671:    -81  76  10  774
1477473650.672:    -66  76  10  774
1477473650.673:    -52  76  10  774
1477473650.675:    -42  76  10  774
1477473650.676:    -34  76  10  774
1477473650.678:    -22  76  10  774
1477473650.681:     -4  76  10  774
1477473650.689:     18  76  10  774
1477473650.690:     39  76  10  774
1477473650.690:     61  76  10  774
1477473650.690:     84  76  10  774
1477473650.695:    105  76  10  774
1477473650.696:    123  76  10  774
1477473650.697:    141  76  10  774
1477473650.699:    169  76  10  774
1477473650.708:    206  76  10  774
1477473650.708:    241  76  10  774
1477473650.708:    265  76  10  774
1477473650.709:    281  76  10  774
1477473650.709:    302  76  10  774
1477473650.710:    334  76  10  774
1477473650.713:    366  76  10  774
1477473650.714:    388  76  10  774
1477473650.717:    396  76  10  774
1477473650.717:    403  76  10  774
1477473650.718:    417  76  10  774
1477473650.720:    435  76  10  774
1477473650.722:    445  76  10  774
1477473650.728:    445  76  10  774
1477473650.729:    442  76  10  774
1477473650.729:    447  76  10  774
1477473650.735:    460  76  10  774
1477473650.737:    471  76  10  774
1477473650.738:    469  76  10  774
1477473650.738:    456  76  10  774
1477473650.738:    442  76  10  774
1477473650.740:    434  76  10  774
1477473650.741:    429  76  10  774
1477473650.743:    419  76  10  774
1477473650.745:    398  76  10  774
1477473650.749:    371  76  10  774
1477473650.750:    346  76  10  774
1477473650.751:    330  76  10  774
1477473650.770:    316  76  10  774
1477473650.842:    298  76  10  774
1477473650.844:    276  76  10  774
1477473650.847:    255  76  10  774
1477473650.847:    238  76  10  774
1477473650.847:    225  76  10  774
1477473650.847:    210  76  10  774
1477473650.847:    192  76  10  774
1477473650.847:    172  76  10  774
1477473650.847:    154  76  10  774
1477473650.849:    139  76  10  774
1477473650.849:    126  76  10  774
1477473650.849:    112  76  10  774
1477473650.849:     98  76  10  774
1477473650.849:     86  76  10  774
1477473650.849:     77  76  10  774
1477473650.850:     68  76  10  774
1477473650.850:     60  76  10  774
1477473650.850:     51  76  10  774
1477473650.850:     42  76  10  774
1477473650.850:     35  76  10  774
1477473650.850:     27  76  10  774
1477473650.850:     19  76  10  774
1477473650.851:     12  76  10  774
1477473650.851:      7  76  10  774
1477473650.851:      2  76  10  774
1477473650.851:     -4  76  10  774
1477473650.851:     -9  76  10  774
1477473650.852:     -8  76  10  774
1477473650.852:      1  76  10  774
1477473650.852:     12  76  10  774
1477473650.852:     20  76  10  774
1477473650.852:     21  76  10  774
1477473650.852:     21  76  10  774
1477473650.853:     23  76  10  774
1477473650.853:     27  76  10  774
1477473650.853:     31  76  10  774
1477473650.853:     37  76  10  774
1477473650.864:     49  76  10  774
1477473650.864:     65  76  10  774
1477473650.864:     80  76  10  774
1477473650.864:     90  76  10  774
1477473650.864:     98  76  10  774
1477473650.864:    112  76  10  774
1477473650.864:    133  76  10  774
1477473650.865:    153  76  10  774
1477473650.865:    167  76  10  774
1477473650.865:    175  76  10  774
1477473650.865:    180  76  10  774
1477473650.865:    185  76  10  774
1477473650.865:    190  76  10  774
1477473650.866:    196  76  10  774
1477473650.866:    206  76  10  774
1477473650.866:    218  76  10  774
1477473650.866:    226  76  10  774
1477473650.867:    226  76  10  774
1477473650.867:    221  76  10  774
1477473650.867:    220  76  10  774
1477473650.868:    228  76  10  774
1477473650.869:    243  76  10  774
1477473650.871:    260  76  10  774
1477473650.872:    273  76  10  774
1477473650.878:    280  76  10  774
1477473650.878:    283  76  10  774
1477473650.888:    285  76  10  774
1477473650.889:    290  76  10  774
1477473650.889:    301  76  10  774
1477473650.890:    314  76  10  774
1477473650.890:    322  76  10  774
1477473650.893:    320  76  10  774
1477473650.894:    315  76  10  774
1477473650.894:    315  76  10  774
1477473650.897:    323  76  10  774
1477473650.899:    331  76  10  774
1477473650.900:    332  76  10  774
1477473650.901:    325  76  10  774
1477473650.908:    317  76  10  774
1477473650.908:    312  76  10  774
1477473650.920:    308  76  10  774
1477473650.920:    302  76  10  774
1477473650.921:    295  76  10  774
1477473650.921:    292  76  10  774
1477473650.922:    292  76  10  774
1477473650.922:    293  76  10  774
1477473650.923:    292  76  10  774
1477473650.926:    289  76  10  774
1477473650.927:    287  76  10  774
1477473650.929:    286  76  10  774
1477473650.930:    287  76  10  774
1477473650.931:    287  76  10  774
1477473650.934:    288  76  10  774
1477473650.935:    289  76  10  774
1477473650.944:    288  76  10  774
1477473650.945:    286  76  10  774
1477473650.945:    286  76  10  774
1477473650.946:    290  76  10  774
1477473650.946:    295  76  10  774
1477473650.946:    296  76  10  774
1477473650.947:    296  76  10  774
1477473650.971:    299  76  10  774
1477473650.979:    306  76  10  774
1477473650.979:    309  76  10  774
1477473650.980:    305  76  10  774
1477473650.980:    296  76  10  774
1477473650.980:    291  76  10  774
1477473650.980:    291  76  10  774
1477473650.980:    290  76  10  774
1477473650.980:    282  76  10  774
1477473650.980:    274  76  10  774
1477473650.980:    272  76  10  774
1477473650.981:    274  76  10  774
1477473650.981:    274  76  10  774
1477473650.981:    268  76  10  774
1477473650.981:    263  76  10  774
1477473650.984:    262  76  10  774
1477473650.984:    260  76  10  774
1477473650.985:    250  76  10  774
1477473650.986:    237  76  10  774
1477473650.989:    230  76  10  774
1477473650.990:    234  76  10  774
1477473650.994:    239  76  10  774
1477473650.994:    233  76  10  774
1477473650.997:    218  76  10  774
1477473650.997:    209  76  10  774
1477473650.998:    210  76  10  774
1477473651.000:    210  76  10  774
1477473651.011:    198  76  10  774
1477473651.011:    176  76  10  774
1477473651.011:    162  76  10  774
1477473651.012:    162  76  10  774
1477473651.012:    168  76  10  774
1477473651.012:    167  76  10  774
1477473651.013:    156  76  10  774
1477473651.015:    148  76  10  774
1477473651.020:    154  76  10  774
1477473651.021:    167  76  10  774
1477473651.022:    173  76  10  774
1477473651.022:    168  76  10  774
1477473651.023:    156  76  10  774
1477473651.027:    147  76  10  774
1477473651.029:    147  76  10  774
1477473651.033:    152  76  10  774
1477473651.034:    155  76  10  774
1477473651.037:    155  76  10  774
1477473651.054:    154  76  10  774
1477473651.055:    153  76  10  774
1477473651.055:    155  76  10  774
1477473651.055:    158  76  10  774
1477473651.055:    160  76  10  774
1477473651.055:    160  76  10  774
1477473651.056:    157  76  10  774
1477473651.056:    153  76  10  774
1477473651.056:    152  76  10  774
1477473651.056:    152  76  10  774
1477473651.059:    153  76  10  774
1477473651.060:    157  76  10  774
1477473651.061:    162  76  10  774
1477473651.062:    167  76  10  774
1477473651.063:    166  76  10  774
1477473651.065:    158  76  10  774
1477473651.068:    145  76  10  774
1477473651.070:    135  76  10  774
1477473651.071:    132  76  10  774
1477473651.074:    134  76  10  774
1477473651.087:    133  76  10  774
1477473651.087:    124  76  10  774
1477473651.087:    108  76  10  774
1477473651.088:     95  76  10  774
1477473651.088:     89  76  10  774
1477473651.088:     85  76  10  774
1477473651.088:     73  76  10  774
1477473651.089:     51  76  10  774
1477473651.093:     26  76  10  774
1477473651.093:      8  76  10  774
1477473651.095:     -8  76  10  774
1477473651.097:    -31  76  10  774
1477473651.104:    -73  76  10  774
1477473651.104:   -128  76  10  774
1477473651.105:   -183  76  10  774
1477473651.108:   -227  76  10  774
1477473651.108:   -256  76  10  774
1477473651.109:   -275  76  10  774
1477473651.111:   -289  76  10  774
1477473651.112:   -296  76  10  774
1477473651.115:   -291  76  10  774
1477473651.116:   -270  76  10  774
1477473651.120:   -234  76  10  774
1477473651.121:   -191  76  10  774
1477473651.132:   -151  76  10  774
1477473651.132:   -125  76  10  774
1477473651.133:   -110  76  10  774
1477473651.133:    -94  76  10  774
1477473651.134:    -68  76  10  774
1477473651.136:    -33  76  10  774
1477473651.136:      0  76  10  774
1477473651.138:     24  76  10  774
1477473651.138:     41  76  10  774
1477473651.140:     66  76  10  774
1477473651.151:    108  76  10  774
1477473651.152:    159  76  10  774
1477473651.152:    202  76  10  774
1477473651.152:    232  76  10  774
1477473651.152:    253  76  10  774
1477473651.153:    276  76  10  774
1477473651.153:    299  76  10  774
1477473651.155:    314  76  10  774
1477473651.163:    312  76  10  774
1477473651.164:    300  76  10  774
1477473651.165:    288  76  10  774
1477473651.169:    279  76  10  774
1477473651.170:    269  76  10  774
1477473651.170:    257  76  10  774
1477473651.171:    248  76  10  774
1477473651.172:    247  76  10  774
1477473651.174:    245  76  10  774
1477473651.175:    229  76  10  774
1477473651.178:    202  76  10  774
1477473651.179:    176  76  10  774
1477473651.184:    168  76  10  774
1477473651.184:    172  76  10  774
1477473651.186:    164  76  10  774
1477473651.188:    130  76  10  774
1477473651.201:     84  76  10  774
1477473651.202:     53  76  10  774
1477473651.202:     37  76  10  774
1477473651.202:     20  76  10  774
1477473651.202:     -9  76  10  774
1477473651.202:    -38  76  10  774
1477473651.202:    -51  76  10  774
1477473651.203:    -49  76  10  774
1477473651.207:    -56  76  10  774
1477473651.207:    -82  76  10  774
1477473651.209:   -109  76  10  774
1477473651.211:   -125  76  10  774
1477473651.217:   -168  76  10  774
1477473651.217:   -322  76  10  774
1477473651.224:   -672  76  10  774
1477473651.224:  -1234  76  10  774
1477473651.224:  -1937  76  10  774
1477473651.226:  -2661  76  10  774
1477473651.226:  -3304  76  10  774
1477473651.230:  -3815  76  10  774
1477473651.230:  -4186  76  10  774
1477473651.234:  -4401  76  10  774
1477473651.244:  -4419  76  10  774
1477473651.244:  -4193  76  10  774
1477473651.244:  -3715  76  10  774
1477473651.244:  -3024  76  10  774
1477473651.244:  -2195  76  10  774
1477473651.244:  -1308  76  10  774
1477473651.245:   -449  76  10  774
1477473651.248:    291  76  10  774
1477473651.251:    840  76  10  774
1477473651.255:   1187  76  10  774
1477473651.256:   1384  76  10  774
1477473651.260:   1502  76  10  774
1477473651.261:   1565  76  10  774
1477473651.262:   1551  76  10  774
1477473651.263:   1444  76  10  774
1477473651.264:   1270  76  10  774
1477473651.281:   1090  76  10  774
1477473651.281:    959  76  10  774
1477473651.281:    894  76  10  774
1477473651.281:    874  76  10  774
1477473651.282:    863  76  10  774
1477473651.282:    829  76  10  774
1477473651.283:    758  76  10  774
1477473651.283:    668  76  10  774
1477473651.283:    599  76  10  774
1477473651.284:    584  77  10  773
1477473651.284:    618  77  10  773
1477473651.286:    671  77  10  773
1477473651.287:    706  77  10  773
1477473651.288:    708  77  10  773
1477473651.291:    684  77  10  773
1477473651.293:    643  77  10  773
1477473651.302:    600  77  10  773
1477473651.302:    570  77  10  773
1477473651.302:    565  77  10  773
1477473651.305:    584  77  10  773
1477473651.306:    611  77  10  773
1477473651.307:    622  77  10  773
1477473651.308:    608  77  10  773
1477473651.311:    577  77  10  773
1477473651.312:    541  77  10  773
1477473651.314:    511  77  10  773
1477473651.315:    495  77  10  773
1477473651.316:    492  77  10  773
1477473651.327:    497  77  10  773
1477473651.327:    502  77  10  773
1477473651.328:    498  77  10  773
1477473651.329:    487  77  10  773
1477473651.329:    473  77  10  773
1477473651.330:    463  77  10  773
1477473651.331:    456  77  10  773
1477473651.332:    447  77  10  773
1477473651.338:    440  77  10  773
1477473651.340:    439  77  10  773
1477473651.355:    442  77  10  773
1477473651.355:    441  77  10  773
1477473651.356:    430  77  10  773
1477473651.357:    409  77  10  773
1477473651.359:    388  77  10  773
1477473651.362:    377  77  10  773
1477473651.364:    376  77  10  773
1477473651.368:    380  77  10  773
1477473651.368:    380  77  10  773
1477473651.368:    372  77  10  773
1477473651.369:    359  77  10  773
1477473651.369:    346  77  10  773
1477473651.369:    341  77  10  773
1477473651.369:    343  77  10  773
1477473651.370:    346  77  10  773
1477473651.370:    341  77  10  773
1477473651.371:    330  77  10  773
1477473651.372:    318  77  10  773
1477473651.375:    312  77  10  773
1477473651.375:    311  77  10  773
1477473651.388:    309  77  10  773
1477473651.389:    300  77  10  773
1477473651.389:    284  77  10  773
1477473651.389:    267  77  10  773
1477473651.390:    258  77  10  773
1477473651.390:    257  77  10  773
1477473651.391:    258  77  10  773
1477473651.396:    253  77  10  773
1477473651.407:    242  77  10  773
1477473651.407:    232  77  10  773
1477473651.408:    232  77  10  773
1477473651.409:    238  77  10  773
1477473651.409:    238  77  10  773
1477473651.409:    225  77  10  773
1477473651.409:    205  77  10  773
1477473651.410:    192  77  10  773
1477473651.410:    188  77  10  773
1477473651.413:    184  77  10  773
1477473651.413:    171  77  10  773
1477473651.417:    148  77  10  773
1477473651.418:    120  77  10  773
1477473651.419:     96  77  10  773
1477473651.420:     84  77  10  773
1477473651.427:     84  77  10  773
1477473651.427:     86  77  10  773
1477473651.429:     72  77  10  773
1477473651.429:     38  77  10  773
1477473651.431:      1  77  10  773
1477473651.433:    -17  77  10  773
1477473651.437:    -16  77  10  773
1477473651.450:    -14  77  10  773
1477473651.450:    -26  77  10  773
1477473651.450:    -47  77  10  773
1477473651.450:    -65  77  10  773
1477473651.450:    -79  77  10  773
1477473651.451:   -100  77  10  773
1477473651.451:   -130  77  10  773
1477473651.453:   -155  77  10  773
1477473651.454:   -168  77  10  773
1477473651.456:   -183  77  10  773
1477473651.460:   -215  77  10  773
1477473651.460:   -254  77  10  773
1477473651.462:   -279  77  10  773
1477473651.464:   -282  77  10  773
1477473651.465:   -286  77  10  773
1477473651.469:   -306  77  10  773
1477473651.471:   -325  77  10  773
1477473651.473:   -324  77  10  773
1477473651.473:   -318  77  10  773
1477473651.475:   -335  77  10  773
1477473651.476:   -382  77  10  773
1477473651.477:   -421  77  10  773
1477473651.479:   -418  77  10  773
1477473651.481:   -390  77  10  773
1477473651.494:   -383  77  10  773
1477473651.494:   -415  77  10  773
1477473651.494:   -449  77  10  773
1477473651.495:   -445  77  10  773
1477473651.496:   -411  77  10  773
1477473651.496:   -381  77  10  773
1477473651.496:   -371  77  10  773
1477473651.497:   -366  77  10  773
1477473651.500:   -355  77  10  773
1477473651.504:   -350  77  10  773
1477473651.513:   -368  77  10  773
1477473651.513:   -396  77  10  773
1477473651.513:   -404  77  10  773
1477473651.514:   -380  77  10  773
1477473651.514:   -344  77  10  773
1477473651.514:   -323  77  10  773
1477473651.516:   -316  77  10  773
1477473651.520:   -301  77  10  773
1477473651.524:   -264  77  10  773
1477473651.524:   -222  77  10  773
1477473651.526:   -200  77  10  773
1477473651.528:   -200  77  10  773
1477473651.529:   -197  77  10  773
1477473651.531:   -174  77  10  773
1477473651.534:   -138  77  10  773
1477473651.536:   -111  77  10  773
1477473651.536:   -110  77  10  773
1477473651.537:   -120  77  10  773
1477473651.538:   -117  77  10  773
1477473651.541:    -90  77  10  773
1477473651.546:    -52  77  10  773
1477473651.549:    -22  77  10  773
1477473651.554:     -7  77  10  773
1477473651.555:      6  77  10  773
1477473651.555:     28  77  10  773
1477473651.555:     54  77  10  773
1477473651.555:     76  77  10  773
1477473651.557:     96  77  10  773
1477473651.559:    119  77  10  773
1477473651.563:    144  77  10  773
1477473651.563:    163  77  10  773
1477473651.564:    175  77  10  773
1477473651.567:    190  77  10  773
1477473651.568:    219  77  10  773
1477473651.570:    263  77  10  773
1477473651.572:    308  77  10  773
1477473651.576:    339  77  10  773
1477473651.577:    357  77  10  773
1477473651.578:    369  77  10  773
1477473651.579:    382  77  10  773
1477473651.580:    401  77  10  773
1477473651.584:    425  77  10  773
1477473651.647:    450  77  10  773
1477473651.648:    476  77  10  773
1477473651.648:    500  77  10  773
1477473651.648:    523  77  10  773
1477473651.648:    540  77  10  773
1477473651.648:    548  77  10  773
1477473651.648:    547  77  10  773
1477473651.649:    544  77  10  773
1477473651.649:    548  77  10  773
1477473651.649:    560  77  10  773
1477473651.649:    569  77  10  773
1477473651.649:    561  77  10  773
1477473651.650:    535  77  10  773
1477473651.650:    506  77  10  773
1477473651.650:    493  77  10  773
1477473651.650:    498  77  10  773
1477473651.674:    506  77  10  773
1477473651.675:    495  77  10  773
1477473651.675:    464  77  10  773
1477473651.675:    429  77  10  773
1477473651.675:    407  77  10  773
1477473651.675:    398  77  10  773
1477473651.675:    391  77  10  773
1477473651.677:    377  77  10  773
1477473651.677:    355  77  10  773
1477473651.677:    331  77  10  773
1477473651.678:    310  77  10  773
1477473651.678:    295  77  10  773
1477473651.679:    289  77  10  773
1477473651.680:    285  77  10  773
1477473651.680:    270  77  10  773
1477473651.680:    229  77  10  773
1477473651.681:    174  77  10  773
1477473651.681:    140  77  10  773
1477473651.681:    148  77  10  773
1477473651.681:    179  77  10  773
1477473651.682:    191  77  10  773
1477473651.682:    160  77  10  773
1477473651.682:    111  77  10  773
1477473651.683:     82  77  10  773
1477473651.683:     92  77  10  773
1477473651.683:    122  77  10  773
1477473651.692:    133  77  10  773
1477473651.695:    107  77  10  773
1477473651.703:     56  77  10  773
1477473651.703:      7  77  10  773
1477473651.703:    -12  77  10  773
1477473651.703:      2  77  10  773
1477473651.704:     27  77  10  773
1477473651.704:     29  77  10  773
1477473651.704:      2  77  10  773
1477473651.704:    -20  77  10  773
1477473651.705:     -3  77  10  773
1477473651.705:     45  77  10  773
1477473651.705:     74  77  10  773
1477473651.705:     57  77  10  773
1477473651.706:     23  77  10  773
1477473651.706:     26  77  10  773
1477473651.706:     76  77  10  773
1477473651.707:    123  77  10  773
1477473651.707:    117  77  10  773
1477473651.707:     70  77  10  773
1477473651.712:     43  77  10  773
1477473651.712:     72  77  10  773
1477473651.712:    128  77  10  773
1477473651.713:    154  77  10  773
1477473651.715:    134  77  10  773
1477473651.717:    102  77  10  773
1477473651.718:     97  77  10  773
1477473651.721:    125  77  10  773
1477473651.722:    162  77  10  773
1477473651.725:    187  77  10  773
1477473651.727:    200  77  10  773
1477473651.730:    211  77  10  773
1477473651.731:    225  77  10  773
1477473651.735:    241  77  10  773
1477473651.749:    259  77  10  773
1477473651.749:    274  77  10  773
1477473651.749:    277  77  10  773
1477473651.750:    272  77  10  773
1477473651.750:    270  77  10  773
1477473651.750:    281  77  10  773
1477473651.750:    304  77  10  773
1477473651.750:    323  77  10  773
1477473651.750:    329  77  10  773
1477473651.752:    328  77  10  773
1477473651.754:    338  77  10  773
1477473651.764:    360  77  10  773
1477473651.765:    381  77  10  773
1477473651.765:    388  77  10  773
1477473651.765:    380  77  10  773
1477473651.765:    368  77  10  773
1477473651.769:    358  77  10  773
1477473651.770:    350  77  10  773
1477473651.772:    344  77  10  773
1477473651.773:    345  77  10  773
1477473651.789:    352  77  10  773
1477473651.789:    357  77  10  773
1477473651.789:    356  77  10  773
1477473651.789:    350  77  10  773
1477473651.789:    350  77  10  773
1477473651.789:    357  77  10  773
1477473651.789:    358  77  10  773
1477473651.789:    348  77  10  773
1477473651.791:    331  77  10  773
1477473651.792:    325  77  10  773
1477473651.797:    336  77  10  773
1477473651.797:    352  77  10  773
1477473651.801:    358  77  10  773
1477473651.801:    347  77  10  773
1477473651.811:    331  77  10  773
1477473651.811:    324  77  10  773
1477473651.812:    333  77  10  773
1477473651.812:    347  77  10  773
1477473651.812:    352  77  10  773
1477473651.814:    343  77  10  773
1477473651.815:    331  77  10  773
1477473651.817:    329  77  10  773
1477473651.818:    338  77  10  773
1477473651.819:    349  77  10  773
1477473651.821:    352  77  10  773
1477473651.824:    349  77  10  773
1477473651.833:    349  77  10  773
1477473651.833:    352  77  10  773
1477473651.834:    357  77  10  773
1477473651.834:    357  77  10  773
1477473651.834:    353  77  10  773
1477473651.836:    352  77  10  773
1477473651.837:    350  77  10  773
1477473651.842:    345  77  10  773
1477473651.842:    339  77  10  773
1477473651.843:    334  77  10  773
1477473651.844:    330  77  10  773
1477473651.846:    322  77  10  773
1477473651.848:    310  77  10  773
1477473651.851:    304  77  10  773
1477473651.855:    313  77  10  773
1477473651.855:    329  77  10  773
1477473651.858:    334  77  10  773
1477473651.859:    319  77  10  773
1477473651.860:    300  77  10  773
1477473651.862:    301  77  10  773
1477473651.876:    322  77  10  773
1477473651.876:    338  77  10  773
1477473651.876:    328  77  10  773
1477473651.877:    300  77  10  773
1477473651.877:    281  77  10  773
1477473651.877:    286  77  10  773
1477473651.877:    299  77  10  773
1477473651.879:    295  77  10  773
1477473651.883:    273  77  10  773
1477473651.883:    255  77  10  773
1477473651.886:    258  77  10  773
1477473651.886:    271  77  10  773
1477473651.888:    271  77  10  773
1477473651.893:    254  77  10  773
1477473651.904:    239  77  10  773
1477473651.904:    248  77  10  773
1477473651.904:    272  77  10  773
1477473651.904:    289  77  10  773
1477473651.905:    283  77  10  773
1477473651.905:    264  77  10  773
1477473651.905:    249  77  10  773
1477473651.907:    246  77  10  773
1477473651.910:    246  77  10  773
1477473651.911:    247  77  10  773
1477473651.913:    246  77  10  773
1477473651.914:    244  77  10  773
1477473651.916:    236  77  10  773
1477473651.917:    223  77  10  773
1477473651.919:    217  77  10  773
1477473651.921:    229  77  10  773
1477473651.930:    251  77  10  773
1477473651.931:    263  77  10  773
1477473651.931:    251  77  10  773
1477473651.931:    227  77  10  773
1477473651.931:    215  77  10  773
1477473651.933:    223  77  10  773
1477473651.935:    237  77  10  773
1477473651.938:    238  77  10  773
1477473651.939:    222  77  10  773
1477473651.943:    207  77  10  773
1477473651.963:    210  77  10  773
1477473651.964:    230  77  10  773
1477473651.965:    250  77  10  773
1477473651.966:    255  77  10  773
1477473651.967:    250  77  10  773
1477473651.968:    245  77  10  773
1477473651.986:    247  77  10  773
1477473651.987:    248  77  10  773
1477473651.988:    239  77  10  773
1477473651.989:    220  77  10  773
1477473651.989:    199  77  10  773
1477473651.990:    185  77  10  773
1477473651.991:    179  77  10  773
1477473651.993:    179  77  10  773
1477473651.993:    185  77  10  773
1477473651.993:    198  77  10  773
1477473651.993:    206  77  10  773
1477473651.993:    199  77  10  773
1477473651.993:    175  77  10  773
1477473651.994:    146  77  10  773
1477473651.994:    124  77  10  773
1477473651.994:    103  77  10  773
1477473651.994:     65  77  10  773
1477473651.994:      3  77  10  773
1477473651.995:    -72  77  10  773
1477473651.995:   -143  77  10  773
1477473651.997:   -196  77  10  773
1477473651.999:   -233  77  10  773
1477473652.000:   -259  77  10  773
1477473652.001:   -277  77  10  773
1477473652.003:   -284  77  10  773
1477473652.007:   -282  77  10  773
1477473652.008:   -267  77  10  773
1477473652.010:   -237  77  10  773
1477473652.012:   -191  77  10  773
1477473652.012:   -141  77  10  773
1477473652.013:   -103  77  10  773
1477473652.016:    -77  77  10  773
1477473652.017:    -49  77  10  773
1477473652.018:     -6  77  10  773
1477473652.024:     44  77  10  773
1477473652.025:     81  77  10  773
1477473652.048:     97  77  10  773
1477473652.049:    108  77  10  773
1477473652.050:    135  77  10  773
1477473652.051:    181  77  10  773
1477473652.051:    226  77  10  773
1477473652.052:    261  77  10  773
1477473652.053:    287  77  10  773
1477473652.054:    315  77  10  773
1477473652.054:    346  77  10  773
1477473652.055:    366  77  10  773
1477473652.055:    375  77  10  773
1477473652.056:    380  77  10  773
1477473652.059:    387  77  10  773
1477473652.060:    392  77  10  773
1477473652.061:    382  77  10  773
1477473652.061:    361  77  10  773
1477473652.079:    344  77  10  773
1477473652.080:    341  77  10  773
1477473652.080:    344  77  10  773
1477473652.081:    338  77  10  773
1477473652.081:    316  77  10  773
1477473652.082:    293  77  10  773
1477473652.082:    282  77  10  773
1477473652.082:    285  77  10  773
1477473652.083:    284  77  10  773
1477473652.083:    261  77  10  773
1477473652.084:    217  77  10  773
1477473652.084:    173  77  10  773
1477473652.084:    147  77  10  773
1477473652.085:    132  77  10  773
1477473652.085:    104  77  10  773
1477473652.086:     59  77  10  773
1477473652.088:     22  77  10  773
1477473652.093:     14  77  10  773
1477473652.112:     29  77  10  773
1477473652.112:     31  77  10  773
1477473652.113:      0  77  10  773
1477473652.113:    -52  77  10  773
1477473652.113:    -95  77  10  773
1477473652.113:   -145  77  10  773
1477473652.114:   -275  77  10  773
1477473652.114:   -578  77  10  773
1477473652.114:  -1103  77  10  773
1477473652.115:  -1800  77  10  773
1477473652.115:  -2546  77  10  773
1477473652.117:  -3215  77  10  773
1477473652.118:  -3749  77  10  773
1477473652.120:  -4158  77  10  773
1477473652.121:  -4455  77  10  773
1477473652.122:  -4591  77  10  773
1477473652.123:  -4475  77  10  773
1477473652.124:  -4061  77  10  773
1477473652.127:  -3396  77  10  773
1477473652.129:  -2589  77  10  773
1477473652.144:  -1735  77  10  773
1477473652.144:   -880  77  10  773
1477473652.145:    -72  77  10  773
1477473652.145:    609  77  10  773
1477473652.146:   1088  77  10  773
1477473652.146:   1360  77  10  773
1477473652.147:   1501  77  10  773
1477473652.147:   1590  77  10  773
1477473652.148:   1639  77  10  773
1477473652.153:   1602  77  10  773
1477473652.154:   1455  77  10  773
1477473652.155:   1246  76  10  781
1477473652.155:   1064  76  10  781
1477473652.157:    968  76  10  781
1477473652.169:    944  76  10  781
1477473652.170:    937  76  10  781
1477473652.170:    902  76  10  781
1477473652.170:    832  76  10  781
1477473652.170:    748  76  10  781
1477473652.170:    684  76  10  781
1477473652.171:    665  76  10  781
1477473652.175:    693  76  10  781
1477473652.175:    750  76  10  781
1477473652.177:    805  76  10  781
1477473652.178:    823  76  10  781
1477473652.180:    797  76  10  781
1477473652.182:    740  76  10  781
1477473652.185:    680  76  10  781
1477473652.189:    640  76  10  781
1477473652.189:    625  76  10  781
1477473652.191:    628  76  10  781
1477473652.192:    639  76  10  781
1477473652.193:    646  76  10  781
1477473652.199:    640  76  10  781
1477473652.200:    619  76  10  781
1477473652.202:    590  76  10  781
1477473652.203:    564  76  10  781
1477473652.204:    547  76  10  781
1477473652.205:    540  76  10  781
