timestamp: ADC HeartRate4sAverage HeartRate30sAverage HRV8sAverage
1477474433.844:  -2727  63   8  764
1477474433.845:  -2629  63   8  764
1477474433.845:  -2553  63   8  764
1477474433.850:  -2545  63   8  764
1477474433.850:  -2598  63   8  764
1477474433.867:  -2659  63   8  764
1477474433.868:  -2672  63   8  764
1477474433.868:  -2643  63   8  764
1477474433.868:  -2617  63   8  764
1477474433.868:  -2624  63   8  764
1477474433.869:  -2642  63   8  764
1477474433.869:  -2638  63   8  764
1477474433.869:  -2605  63   8  764
1477474433.870:  -2574  63   8  764
1477474433.870:  -2575  63   8  764
1477474433.872:  -2603  63   8  764
1477474433.873:  -2630  63   8  764
1477474433.874:  -2648  63   8  764
1477474433.876:  -2667  63   8  764
1477474433.884:  -2686  63   8  764
1477474433.885:  -2672  63   8  764
1477474433.885:  -2598  63   8  764
1477474433.885:  -2486  63   8  764
1477474433.886:  -2398  63   8  764
1477474433.888:  -2377  63   8  764
1477474433.890:  -2403  63   8  764
1477474433.895:  -2420  63   8  764
1477474433.901:  -2402  63   8  764
1477474433.901:  -2364  63   8  764
1477474433.902:  -2317  63   8  764
1477474433.902:  -2245  63   8  764
1477474433.902:  -2133  63   8  764
1477474433.904:  -2017  63   8  764
1477474433.909:  -1948  63   8  764
1477474433.909:  -1938  63   8  764
1477474433.930:  -1934  63   8  764
1477474433.931:  -1877  63   8  764
1477474433.931:  -1775  63   8  764
1477474433.931:  -1684  63   8  764
1477474433.932:  -1639  63   8  764
1477474433.932:  -1603  63   8  764
1477474433.933:  -1519  63   8  764
1477474433.933:  -1386  63   8  764
1477474433.934:  -1266  63   8  764
1477474433.934:  -1216  63   8  764
1477474433.935:  -1243  63   8  764
1477474433.935:  -1315  63   8  764
1477474433.935:  -1406  63   8  764
1477474433.935:  -1500  63   8  764
1477474433.936:  -1573  63   8  764
1477474433.939:  -1604  63   8  764
1477474433.940:  -1603  63   8  764
1477474433.945:  -1609  63   8  764
1477474433.960:  -1648  63   8  764
1477474433.960:  -1701  63   8  764
1477474433.960:  -1732  63   8  764
1477474433.960:  -1743  63   8  764
1477474433.961:  -1766  63   8  764
1477474433.961:  -1831  63   8  764
1477474433.961:  -1910  63   8  764
1477474433.961:  -1958  63   8  764
1477474433.961:  -1961  63   8  764
1477474433.963:  -1945  63   8  764
1477474433.964:  -1941  63   8  764
1477474433.968:  -1947  63   8  764
1477474433.969:  -1948  63   8  764
1477474433.970:  -1940  63   8  764
1477474433.980:  -1942  63   8  764
1477474433.980:  -1970  63   8  764
1477474433.980:  -2012  63   8  764
1477474433.980:  -2031  63   8  764
1477474433.980:  -2002  63   8  764
1477474433.982:  -1931  63   8  764
1477474433.985:  -1872  63   8  764
1477474433.985:  -1878  63   8  764
1477474433.988:  -1955  63   8  764
1477474433.989:  -2052  63   8  764
1477474433.992:  -2102  63   8  764
1477474433.996:  -2093  63   8  764
1477474433.996:  -2055  63   8  764
1477474433.998:  -2022  63   8  764
1477474434.015:  -1986  63   8  764
1477474434.015:  -1931  63   8  764
1477474434.015:  -1870  63   8  764
1477474434.016:  -1836  63   8  764
1477474434.016:  -1838  63   8  764
1477474434.017:  -1842  63   8  764
1477474434.017:  -1819  63   8  764
1477474434.017:  -1790  63   8  764
1477474434.017:  -1794  63   8  764
1477474434.019:  -1820  63   8  764
1477474434.019:  -1811  63   8  764
1477474434.023:  -1729  63   8  764
1477474434.024:  -1600  63   8  764
1477474434.027:  -1488  63   8  764
1477474434.035:  -1423  63   8  764
1477474434.036:  -1389  63   8  764
1477474434.036:  -1361  63   8  764
1477474434.036:  -1340  63   8  764
1477474434.038:  -1336  63   8  764
1477474434.038:  -1336  63   8  764
1477474434.039:  -1314  63   8  764
1477474434.041:  -1263  63   8  764
1477474434.044:  -1211  63   8  764
1477474434.046:  -1184  63   8  764
1477474434.054:  -1184  63   8  764
1477474434.054:  -1196  63   8  764
1477474434.054:  -1216  63   8  764
1477474434.054:  -1241  63   8  764
1477474434.055:  -1258  63   8  764
1477474434.057:  -1233  63   8  764
1477474434.058:  -1155  63   8  764
1477474434.065:  -1053  63   8  764
1477474434.072:   -972  63   8  764
1477474434.073:   -928  63   8  764
1477474434.074:   -900  63   8  764
1477474434.074:   -868  63   8  764
1477474434.075:   -840  63   8  764
1477474434.075:   -837  63   8  764
1477474434.076:   -849  63   8  764
1477474434.078:   -839  63   8  764
1477474434.090:   -779  63   8  764
1477474434.090:   -690  63   8  764
1477474434.090:   -616  63   8  764
1477474434.090:   -582  63   8  764
1477474434.090:   -580  63   8  764
1477474434.120:   -602  63   8  764
1477474434.150:   -658  63   8  764
1477474434.151:   -753  63   8  764
1477474434.151:   -863  63   8  764
1477474434.151:   -942  63   8  764
1477474434.151:   -962  63   8  764
1477474434.151:   -936  63   8  764
1477474434.151:   -892  63   8  764
1477474434.151:   -836  63   8  764
1477474434.152:   -749  63   8  764
1477474434.152:   -634  63   8  764
1477474434.152:   -527  63   8  764
1477474434.152:   -469  63   8  764
1477474434.152:   -466  63   8  764
1477474434.152:   -487  63   8  764
1477474434.153:   -485  63   8  764
1477474434.153:   -431  63   8  764
1477474434.153:   -334  63   8  764
1477474434.153:   -229  63   8  764
1477474434.153:   -156  63   8  764
1477474434.153:   -132  63   8  764
1477474434.154:   -136  63   8  764
1477474434.154:   -127  63   8  764
1477474434.154:    -87  63   8  764
1477474434.154:    -36  63   8  764
1477474434.154:     -2  63   8  764
1477474434.154:     20  63   8  764
1477474434.155:     65  63   8  764
1477474434.155:    157  63   8  764
1477474434.155:    272  63   8  764
1477474434.156:    355  63   8  764
1477474434.156:    372  63   8  764
1477474434.156:    347  63   8  764
1477474434.156:    333  63   8  764
1477474434.157:    350  63   8  764
1477474434.157:    368  63   8  764
1477474434.161:    356  63   8  764
1477474434.161:    322  63   8  764
1477474434.165:    309  63   8  764
1477474434.165:    343  63   8  764
1477474434.167:    389  63   8  764
1477474434.169:    398  63   8  764
1477474434.170:    361  63   8  764
1477474434.172:    322  63   8  764
1477474434.174:    308  63   8  764
1477474434.188:    298  63   8  764
1477474434.189:    253  63   8  764
1477474434.191:    183  63   8  764
1477474434.192:    146  63   8  764
1477474434.192:    187  63   8  764
1477474434.193:    278  63   8  764
1477474434.193:    349  63   8  764
1477474434.195:    367  63   8  764
1477474434.205:    370  63   8  764
1477474434.205:    410  63   8  764
1477474434.205:    499  63   8  764
1477474434.205:    598  63   8  764
1477474434.205:    678  63   8  764
1477474434.205:    746  63   8  764
1477474434.206:    829  63   8  764
1477474434.206:    934  63   8  764
1477474434.208:   1037  63   8  764
1477474434.210:   1100  63   8  764
1477474434.212:   1096  63   8  764
1477474434.214:   1026  63   8  764
1477474434.216:    925  63   8  764
1477474434.220:    853  63   8  764
1477474434.220:    847  63   8  764
1477474434.222:    895  63   8  764
1477474434.224:    957  63   8  764
1477474434.225:   1015  63   8  764
1477474434.228:   1088  63   8  764
1477474434.231:   1199  63   8  764
1477474434.240:   1321  63   8  764
1477474434.240:   1376  63   8  764
1477474434.240:   1305  63   8  764
1477474434.240:   1140  63   8  764
1477474434.240:    995  63   8  764
1477474434.243:    965  63   8  764
1477474434.243:   1048  63   8  764
1477474434.256:   1163  63   8  764
1477474434.276:   1233  63   8  764
1477474434.277:   1253  63   8  764
1477474434.277:   1265  63   8  764
1477474434.278:   1292  63   8  764
1477474434.278:   1303  63   8  764
1477474434.279:   1261  63   8  764
1477474434.280:   1175  63   8  764
1477474434.280:   1092  63   8  764
1477474434.282:   1046  63   8  764
1477474434.282:   1034  63   8  764
1477474434.282:   1033  63   8  764
1477474434.283:   1024  63   8  764
1477474434.283:   1004  63   8  764
1477474434.284:    966  63   8  764
1477474434.284:    909  63   8  764
1477474434.284:    852  63   8  764
1477474434.284:    817  63   8  764
1477474434.285:    810  63   8  764
1477474434.285:    813  63   8  764
1477474434.287:    813  63   8  764
1477474434.287:    812  63   8  764
1477474434.290:    805  63   8  764
1477474434.300:    762  63   8  764
1477474434.300:    652  63   8  764
1477474434.301:    493  63   8  764
1477474434.301:    356  63   8  764
1477474434.301:    301  63   8  764
1477474434.301:    321  63   8  764
1477474434.302:    351  63   8  764
1477474434.304:    339  63   8  764
1477474434.307:    288  63   8  764
1477474434.311:    234  63   8  764
1477474434.311:    194  63   8  764
1477474434.313:    158  63   8  764
1477474434.314:    115  63   8  764
1477474434.315:     72  63   8  764
1477474434.318:     54  63   8  764
1477474434.321:     73  63   8  764
1477474434.336:    120  63   8  764
1477474434.337:    172  63   8  764
1477474434.339:    209  63   8  764
1477474434.340:    225  63   8  764
1477474434.341:    213  63   8  764
1477474434.342:    166  63   8  764
1477474434.343:     84  63   8  764
1477474434.344:     -9  63   8  764
1477474434.344:    -64  63   8  764
1477474434.345:    -45  63   8  764
1477474434.355:     23  63   8  764
1477474434.355:     71  63   8  764
1477474434.355:     41  63   8  764
1477474434.356:    -59  63   8  764
1477474434.356:   -184  63   8  764
1477474434.356:   -309  63   8  764
1477474434.356:   -458  63   8  764
1477474434.358:   -656  63   8  764
1477474434.359:   -863  63   8  764
1477474434.360:   -992  63   8  764
1477474434.364:   -992  63   8  764
1477474434.366:   -896  63   8  764
1477474434.374:   -778  63   8  764
1477474434.374:   -670  63   8  764
1477474434.374:   -540  63   8  833
1477474434.375:   -337  63   8  833
1477474434.375:    -49  63   8  833
1477474434.376:    303  63   8  833
1477474434.380:    698  63   8  833
1477474434.380:   1130  63   8  833
1477474434.381:   1587  63   8  833
1477474434.383:   2049  63   8  833
1477474434.384:   2507  63   8  833
1477474434.387:   2958  63   8  833
1477474434.389:   3386  63   8  833
1477474434.393:   3756  63   8  833
1477474434.394:   4070  63   8  833
1477474434.395:   4401  63   8  833
1477474434.396:   4856  63   8  833
1477474434.398:   5478  63   8  833
1477474434.404:   6211  63   8  833
1477474434.404:   6956  63   8  833
1477474434.418:   7665  63   8  833
1477474434.419:   8332  63   8  833
1477474434.420:   8918  63   8  833
1477474434.420:   9305  63   8  833
1477474434.421:   9373  63   8  833
1477474434.426:   9095  63   8  833
1477474434.427:   8539  63   8  833
1477474434.427:   7796  63   8  833
1477474434.427:   6912  63   8  833
1477474434.428:   5904  63   8  833
1477474434.428:   4815  63   8  833
1477474434.428:   3714  63   8  833
1477474434.439:   2668  63   8  833
1477474434.440:   1724  63   8  833
1477474434.440:    928  63   8  833
1477474434.441:    311  63   8  833
1477474434.441:   -143  63   8  833
1477474434.442:   -503  63   8  833
1477474434.442:   -845  63   8  833
1477474434.442:  -1207  63   8  833
1477474434.444:  -1578  63   8  833
1477474434.449:  -1951  63   8  833
1477474434.457:  -2351  63   8  833
1477474434.457:  -2808  63   8  833
1477474434.457:  -3296  63   8  833
1477474434.457:  -3732  63   8  833
1477474434.457:  -4037  63   8  833
1477474434.459:  -4195  63   8  833
1477474434.462:  -4264  63   8  833
1477474434.462:  -4326  63   8  833
1477474434.464:  -4415  63   8  833
1477474434.466:  -4515  63   8  833
1477474434.466:  -4600  63   8  833
1477474434.469:  -4682  63   8  833
1477474434.471:  -4790  63   8  833
1477474434.472:  -4918  63   8  833
1477474434.484:  -5002  63   8  833
1477474434.484:  -4967  63   8  833
1477474434.485:  -4812  63   8  833
1477474434.485:  -4625  63   8  833
1477474434.485:  -4500  63   8  833
1477474434.486:  -4449  63   8  833
1477474434.489:  -4413  63   8  833
1477474434.490:  -4339  63   8  833
1477474434.491:  -4253  63   8  833
1477474434.492:  -4204  63   8  833
1477474434.504:  -4191  63   8  833
1477474434.505:  -4136  63   8  833
1477474434.505:  -3972  63   8  833
1477474434.506:  -3725  63   8  833
1477474434.507:  -3499  63   8  833
1477474434.507:  -3373  63   8  833
1477474434.509:  -3342  63   8  833
1477474434.509:  -3348  63   8  833
1477474434.510:  -3357  63   8  833
1477474434.511:  -3375  63   8  833
1477474434.525:  -3416  63   8  833
1477474434.525:  -3458  63   8  833
1477474434.526:  -3460  63   8  833
1477474434.527:  -3399  63   8  833
1477474434.527:  -3294  63   8  833
1477474434.528:  -3187  63   8  833
1477474434.529:  -3115  63   8  833
1477474434.531:  -3089  63   8  833
1477474434.532:  -3097  63   8  833
1477474434.533:  -3108  63   8  833
1477474434.535:  -3090  63   8  833
1477474434.538:  -3033  63   8  833
1477474434.539:  -2945  63   8  833
1477474434.540:  -2846  63   8  833
1477474434.541:  -2745  63   8  833
1477474434.544:  -2641  63   8  833
1477474434.545:  -2548  63   8  833
1477474434.550:  -2496  63   8  833
1477474434.550:  -2501  63   8  833
1477474434.551:  -2537  63   8  833
1477474434.553:  -2556  63   8  833
1477474434.555:  -2527  63   8  833
1477474434.569:  -2459  63   8  833
1477474434.569:  -2375  63   8  833
1477474434.569:  -2288  63   8  833
1477474434.569:  -2198  63   8  833
1477474434.569:  -2111  63   8  833
1477474434.569:  -2043  63   8  833
1477474434.570:  -2005  63   8  833
1477474434.572:  -1979  63   8  833
1477474434.573:  -1936  63   8  833
1477474434.578:  -1868  63   8  833
1477474434.578:  -1794  63   8  833
1477474434.581:  -1736  63   8  833
1477474434.582:  -1695  63   8  833
1477474434.583:  -1660  63   8  833
1477474434.586:  -1623  63   8  833
1477474434.587:  -1602  63   8  833
1477474434.591:  -1620  63   8  833
1477474434.592:  -1685  63   8  833
1477474434.595:  -1775  63   8  833
1477474434.595:  -1846  63   8  833
1477474434.596:  -1864  63   8  833
1477474434.597:  -1829  63   8  833
1477474434.612:  -1773  63   8  833
1477474434.613:  -1737  63   8  833
1477474434.614:  -1743  63   8  833
1477474434.615:  -1784  63   8  833
1477474434.615:  -1848  63   8  833
1477474434.616:  -1928  63   8  833
1477474434.617:  -2017  63   8  833
1477474434.618:  -2088  63   8  833
1477474434.618:  -2098  63   8  833
1477474434.619:  -2027  63   8  833
1477474434.622:  -1908  63   8  833
1477474434.623:  -1818  63   8  833
1477474434.633:  -1794  63   8  833
1477474434.634:  -1815  63   8  833
1477474434.634:  -1844  63   8  833
1477474434.635:  -1882  63   8  833
1477474434.635:  -1961  63   8  833
1477474434.636:  -2096  63   8  833
1477474434.637:  -2240  63   8  833
1477474434.638:  -2325  63   8  833
1477474434.639:  -2326  63   8  833
1477474434.644:  -2293  63   8  833
1477474434.645:  -2291  63   8  833
1477474434.646:  -2330  63   8  833
1477474434.648:  -2375  63   8  833
1477474434.649:  -2388  63   8  833
1477474434.655:  -2369  63   8  833
1477474434.655:  -2343  63   8  833
1477474434.656:  -2330  63   8  833
1477474434.659:  -2325  63   8  833
1477474434.674:  -2306  63   8  833
1477474434.674:  -2263  63   8  833
1477474434.767:  -2206  63   8  833
1477474434.769:  -2176  63   8  833
1477474434.769:  -2218  63   8  833
1477474434.769:  -2350  63   8  833
1477474434.791:  -2531  63   8  833
1477474434.791:  -2681  63   8  833
1477474434.791:  -2735  63   8  833
1477474434.791:  -2693  63   8  833
1477474434.792:  -2606  63   8  833
1477474434.792:  -2535  63   8  833
1477474434.792:  -2510  63   8  833
1477474434.792:  -2514  63   8  833
1477474434.792:  -2513  63   8  833
1477474434.793:  -2494  63   8  833
1477474434.793:  -2476  63   8  833
1477474434.793:  -2492  63   8  833
1477474434.793:  -2548  63   8  833
1477474434.793:  -2606  63   8  833
1477474434.794:  -2606  63   8  833
1477474434.794:  -2532  63   8  833
1477474434.794:  -2443  63   8  833
1477474434.794:  -2416  63   8  833
1477474434.794:  -2463  63   8  833
1477474434.794:  -2531  63   8  833
1477474434.795:  -2558  63   8  833
1477474434.795:  -2533  63   8  833
1477474434.795:  -2469  63   8  833
1477474434.795:  -2356  63   8  833
1477474434.795:  -2172  63   8  833
1477474434.796:  -1930  63   8  833
1477474434.796:  -1716  63   8  833
1477474434.796:  -1610  63   8  833
1477474434.797:  -1618  63   8  833
1477474434.797:  -1667  63   8  833
1477474434.797:  -1693  63   8  833
1477474434.799:  -1685  63   8  833
1477474434.799:  -1666  63   8  833
1477474434.800:  -1638  63   8  833
1477474434.800:  -1574  63   8  833
1477474434.801:  -1467  63   8  833
1477474434.801:  -1353  63   8  833
1477474434.801:  -1287  63   8  833
1477474434.802:  -1307  63   8  833
1477474434.803:  -1401  63   8  833
1477474434.804:  -1528  63   8  833
1477474434.805:  -1630  63   8  833
1477474434.806:  -1665  63   8  833
1477474434.806:  -1627  63   8  833
1477474434.816:  -1539  63   8  833
1477474434.817:  -1421  63   8  833
1477474434.817:  -1280  63   8  833
1477474434.817:  -1128  63   8  833
1477474434.817:  -1004  63   8  833
1477474434.817:   -956  63   8  833
1477474434.817:   -999  63   8  833
1477474434.817:  -1085  63   8  833
1477474434.817:  -1142  63   8  833
1477474434.818:  -1120  63   8  833
1477474434.818:  -1029  63   8  833
1477474434.818:   -909  63   8  833
1477474434.818:   -794  63   8  833
1477474434.818:   -700  63   8  833
1477474434.818:   -632  63   8  833
1477474434.818:   -595  63   8  833
1477474434.819:   -592  63   8  833
1477474434.819:   -611  63   8  833
1477474434.819:   -625  63   8  833
1477474434.819:   -604  63   8  833
1477474434.819:   -533  63   8  833
1477474434.819:   -426  63   8  833
1477474434.819:   -323  63   8  833
1477474434.820:   -259  63   8  833
1477474434.820:   -238  63   8  833
1477474434.820:   -235  63   8  833
1477474434.820:   -234  63   8  833
1477474434.820:   -240  63   8  833
1477474434.820:   -263  63   8  833
1477474434.820:   -295  63   8  833
1477474434.821:   -304  63   8  833
1477474434.821:   -268  63   8  833
1477474434.823:   -197  63   8  833
1477474434.824:   -125  63   8  833
1477474434.827:    -80  63   8  833
1477474434.827:    -65  63   8  833
1477474434.828:    -70  63   8  833
1477474434.834:    -91  63   8  833
1477474434.834:   -130  63   8  833
1477474434.837:   -186  63   8  833
1477474434.849:   -238  63   8  833
1477474434.850:   -264  63   8  833
1477474434.850:   -257  63   8  833
1477474434.850:   -236  63   8  833
1477474434.850:   -228  63   8  833
1477474434.850:   -244  63   8  833
1477474434.851:   -275  63   8  833
1477474434.852:   -305  63   8  833
1477474434.855:   -330  63   8  833
1477474434.857:   -344  63   8  833
1477474434.858:   -340  63   8  833
1477474434.858:   -313  63   8  833
1477474434.861:   -273  63   8  833
1477474434.862:   -237  63   8  833
1477474434.870:   -206  63   8  833
1477474434.870:   -174  63   8  833
1477474434.871:   -139  63   8  833
1477474434.871:   -120  63   8  833
1477474434.874:   -125  63   8  833
1477474434.874:   -128  63   8  833
1477474434.876:    -95  63   8  833
1477474434.878:    -18  63   8  833
1477474434.881:     74  63   8  833
1477474434.884:    151  63   8  833
1477474434.884:    215  63   8  833
1477474434.886:    286  63   8  833
1477474434.888:    361  63   8  833
1477474434.889:    401  63   8  833
1477474434.892:    384  63   8  833
1477474434.893:    339  63   8  833
1477474434.897:    328  63   8  833
1477474434.898:    384  63   8  833
1477474434.899:    478  63   8  833
1477474434.901:    570  63   8  833
1477474434.905:    646  63   8  833
1477474434.906:    722  63   8  833
1477474434.912:    803  63   8  833
1477474434.913:    868  63   8  833
1477474434.932:    895  63   8  833
1477474434.932:    897  63   8  833
1477474434.933:    909  63   8  833
1477474434.933:    952  63   8  833
1477474434.933:   1007  63   8  833
1477474434.934:   1049  63   8  833
1477474434.934:   1064  63   8  833
1477474434.934:   1063  63   8  833
1477474434.934:   1060  63   8  833
1477474434.934:   1055  63   8  833
1477474434.935:   1042  63   8  833
1477474434.936:   1018  63   8  833
1477474434.937:    993  63   8  833
1477474434.939:    999  63   8  833
1477474434.939:   1061  63   8  833
1477474434.942:   1176  63   8  833
1477474434.952:   1304  63   8  833
1477474434.952:   1390  63   8  833
1477474434.952:   1415  63   8  833
1477474434.953:   1399  63   8  833
1477474434.953:   1376  63   8  833
1477474434.953:   1356  63   8  833
1477474434.954:   1327  63   8  833
1477474434.957:   1291  63   8  833
1477474434.958:   1273  63   8  833
1477474434.961:   1293  63   8  833
1477474434.963:   1340  63   8  833
1477474434.969:   1380  63   8  833
1477474434.985:   1397  63   8  833
1477474434.985:   1402  63   8  833
1477474434.985:   1409  63   8  833
1477474434.986:   1416  63   8  833
1477474434.986:   1416  63   8  833
1477474434.986:   1419  63   8  833
1477474434.986:   1451  63   8  833
1477474434.986:   1513  63   8  833
1477474434.986:   1573  63   8  833
1477474434.987:   1596  63   8  833
1477474434.987:   1580  63   8  833
1477474434.988:   1548  63   8  833
1477474434.990:   1522  63   8  833
1477474434.992:   1504  63   8  833
1477474434.993:   1488  63   8  833
1477474434.998:   1484  63   8  833
1477474434.999:   1502  63   8  833
1477474435.000:   1536  63   8  833
1477474435.001:   1558  63   8  833
1477474435.008:   1553  63   8  833
1477474435.021:   1533  63   8  833
1477474435.021:   1522  63   8  833
1477474435.021:   1510  63   8  833
1477474435.021:   1470  63   8  833
1477474435.022:   1388  63   8  833
1477474435.022:   1302  63   8  833
1477474435.022:   1273  63   8  833
1477474435.022:   1316  63   8  833
1477474435.023:   1394  63   8  833
1477474435.025:   1457  63   8  833
1477474435.025:   1500  63   8  833
1477474435.028:   1543  63   8  833
1477474435.030:   1591  63   8  833
1477474435.031:   1607  63   8  833
1477474435.041:   1569  63   8  833
1477474435.060:   1510  63   8  833
1477474435.061:   1485  63   8  833
1477474435.062:   1512  63   8  833
1477474435.065:   1555  63   8  833
1477474435.065:   1575  63   8  833
1477474435.065:   1585  63   8  833
1477474435.065:   1619  63   8  833
1477474435.065:   1683  63   8  833
1477474435.066:   1737  63   8  833
1477474435.066:   1751  63   8  833
1477474435.066:   1730  63   8  833
1477474435.067:   1701  63   8  833
1477474435.067:   1664  63   8  833
1477474435.067:   1605  63   8  833
1477474435.067:   1525  63   8  833
1477474435.069:   1458  63   8  833
1477474435.069:   1423  63   8  833
1477474435.071:   1396  63   8  833
1477474435.072:   1337  63   8  833
1477474435.075:   1243  63   8  833
1477474435.075:   1161  63   8  833
1477474435.077:   1133  63   8  833
1477474435.080:   1147  63   8  833
1477474435.080:   1153  63   8  833
1477474435.083:   1121  63   8  833
1477474435.084:   1081  63   8  833
1477474435.085:   1085  63   8  833
1477474435.088:   1144  63   8  833
1477474435.089:   1211  63   8  833
1477474435.124:   1221  63   8  833
1477474435.125:   1155  63   8  833
1477474435.125:   1047  63   8  833
1477474435.126:    950  63   8  833
1477474435.127:    895  63   8  833
1477474435.127:    877  63   8  833
1477474435.128:    888  63   8  833
1477474435.129:    927  63   8  833
1477474435.129:    993  63   8  833
1477474435.130:   1063  63   8  833
1477474435.155:   1100  63   8  833
1477474435.155:   1085  63   8  833
1477474435.155:   1028  63   8  833
1477474435.155:    953  63   8  833
1477474435.155:    862  63   8  833
1477474435.156:    740  63   8  833
1477474435.156:    597  63   8  833
1477474435.156:    502  63   8  833
1477474435.157:    521  63   8  833
1477474435.157:    647  63   8  833
1477474435.157:    796  63   8  833
1477474435.157:    882  63   8  833
1477474435.157:    902  63   8  833
1477474435.157:    922  63   8  833
1477474435.158:    991  63   8  833
1477474435.158:   1097  63   8  833
1477474435.158:   1209  63   8  833
1477474435.158:   1342  63   8  833
1477474435.158:   1535  63   8  833
1477474435.159:   1790  63   8  833
1477474435.159:   2041  63   8  833
1477474435.159:   2207  63   8  833
1477474435.159:   2268  63   8  833
1477474435.159:   2267  63   8  833
1477474435.159:   2257  63   8  833
1477474435.160:   2258  63   8  833
1477474435.161:   2271  63   8  833
1477474435.164:   2310  63   8  833
1477474435.176:   2394  63   8  833
1477474435.176:   2514  63   8  833
1477474435.177:   2625  63   8  833
1477474435.177:   2687  63   8  833
1477474435.177:   2683  63   8  833
1477474435.177:   2630  63   8  833
1477474435.178:   2564  63   8  833
1477474435.180:   2525  63   8  833
1477474435.184:   2547  63   8  833
1477474435.185:   2648  63   8  833
1477474435.187:   2811  63   8  833
1477474435.188:   2998  63   8  833
1477474435.199:   3162  63   8  833
1477474435.199:   3271  63   8  833
1477474435.199:   3297  63   8  833
1477474435.199:   3221  63   8  833
1477474435.199:   3053  63   8  833
1477474435.201:   2844  63   8  833
1477474435.202:   2654  63   8  833
1477474435.203:   2519  63   8  833
1477474435.206:   2427  63   8  833
1477474435.209:   2338  63   8  833
1477474435.224:   2226  63   8  833
1477474435.225:   2091  63   8  833
1477474435.226:   1955  63   8  833
1477474435.226:   1829  63   8  833
1477474435.227:   1711  63   8  833
1477474435.227:   1596  63   8  833
1477474435.228:   1495  63   8  833
1477474435.228:   1427  63   8  833
1477474435.230:   1414  63   8  833
1477474435.231:   1443  63   8  833
1477474435.232:   1462  63   8  833
1477474435.232:   1420  63   8  833
1477474435.245:   1304  63   8  833
1477474435.250:   1136  63   8  833
1477474435.250:    957  63   8  833
1477474435.250:    792  63   8  833
1477474435.250:    650  63   8  833
1477474435.251:    533  63   8  833
1477474435.251:    446  63   8  833
1477474435.251:    380  63   8  833
1477474435.251:    301  63   8  833
1477474435.251:    174  63   8  833
1477474435.253:     -4  63   8  833
1477474435.254:   -217  63   8  833
1477474435.256:   -449  63   8  833
1477474435.257:   -692  63   8  833
1477474435.260:   -922  63   8  833
1477474435.264:  -1083  63   8  833
1477474435.311:  -1127  63   8  833
1477474435.312:  -1065  63   8  833
1477474435.312:   -982  63   8  833
1477474435.312:   -953  63   8  833
1477474435.313:   -966  63   8  833
1477474435.313:   -941  63   8  833
1477474435.313:   -833  63   8  833
1477474435.314:   -692  63   8  833
1477474435.314:   -607  63   8  833
1477474435.314:   -603  63   8  833
1477474435.314:   -615  63   8  833
1477474435.314:   -594  63   8  833
1477474435.315:   -592  63   8  833
1477474435.315:   -711  63   8  833
1477474435.315:   -955  63   8  833
1477474435.316:  -1193  63   8  833
1477474435.316:  -1290  63   8  833
1477474435.316:  -1251  63   8  833
1477474435.317:  -1191  63   8  833
1477474435.317:  -1173  63   8  833
1477474435.317:  -1111  63   8  833
1477474435.317:   -875  63   8  833
1477474435.318:   -456  63   8  833
1477474435.318:     10  63   8  833
1477474435.318:    397  63   8  833
1477474435.318:    707  63   8  833
1477474435.319:   1028  63   8  833
1477474435.319:   1420  63   8  833
1477474435.319:   1865  63   8  833
1477474435.322:   2330  64   8  908
1477474435.326:   2811  64   8  908
1477474435.328:   3308  64   8  908
1477474435.328:   3788  64   8  908
1477474435.329:   4219  64   8  908
1477474435.331:   4643  64   8  908
1477474435.336:   5160  64   8  908
1477474435.344:   5826  64   8  908
1477474435.345:   6601  64   8  908
1477474435.346:   7404  64   8  908
1477474435.347:   8187  64   8  908
1477474435.348:   8928  64   8  908
1477474435.348:   9562  64   8  908
1477474435.349:   9956  64   8  908
1477474435.350:   9992  64   8  908
1477474435.361:   9656  64   8  908
1477474435.362:   9024  64   8  908
1477474435.362:   8169  64   8  908
1477474435.363:   7128  64   8  908
1477474435.364:   5940  64   8  908
1477474435.364:   4704  64   8  908
1477474435.365:   3549  64   8  908
1477474435.369:   2549  64   8  908
1477474435.380:   1691  64   8  908
1477474435.381:    920  64   8  908
1477474435.381:    212  64   8  908
1477474435.381:   -416  64   8  908
1477474435.381:   -957  64   8  908
1477474435.381:  -1444  64   8  908
1477474435.383:  -1918  64   8  908
1477474435.384:  -2375  64   8  908
1477474435.385:  -2781  64   8  908
1477474435.385:  -3121  64   8  908
1477474435.390:  -3438  64   8  908
1477474435.390:  -3793  64   8  908
1477474435.401:  -4196  64   8  908
1477474435.401:  -4576  64   8  908
1477474435.402:  -4859  64   8  908
1477474435.403:  -5054  64   8  908
1477474435.403:  -5235  64   8  908
1477474435.404:  -5440  64   8  908
1477474435.408:  -5628  64   8  908
1477474435.409:  -5726  64   8  908
1477474435.420:  -5733  64   8  908
1477474435.421:  -5733  64   8  908
1477474435.423:  -5801  64   8  908
1477474435.423:  -5915  64   8  908
1477474435.424:  -5994  64   8  908
1477474435.425:  -5999  64   8  908
1477474435.426:  -5968  64   8  908
1477474435.426:  -5961  64   8  908
1477474435.438:  -5979  64   8  908
1477474435.439:  -5975  64   8  908
1477474435.440:  -5927  64   8  908
1477474435.441:  -5874  64   8  908
1477474435.442:  -5868  64   8  908
1477474435.442:  -5909  64   8  908
1477474435.443:  -5935  64   8  908
1477474435.444:  -5896  64   8  908
1477474435.444:  -5799  64   8  908
1477474435.445:  -5689  64   8  908
1477474435.446:  -5589  64   8  908
1477474435.447:  -5487  64   8  908
1477474435.457:  -5366  64   8  908
1477474435.457:  -5249  64   8  908
1477474435.458:  -5183  64   8  908
1477474435.458:  -5186  64   8  908
1477474435.459:  -5212  64   8  908
1477474435.459:  -5206  64   8  908
1477474435.460:  -5144  64   8  908
1477474435.460:  -5052  64   8  908
1477474435.461:  -4955  64   8  908
1477474435.463:  -4850  64   8  908
1477474435.464:  -4722  64   8  908
1477474435.469:  -4585  64   8  908
1477474435.469:  -4491  64   8  908
1477474435.470:  -4475  64   8  908
1477474435.473:  -4505  64   8  908
1477474435.474:  -4510  64   8  908
1477474435.477:  -4453  64   8  908
1477474435.480:  -4363  64   8  908
1477474435.482:  -4293  64   8  908
1477474435.482:  -4261  64   8  908
1477474435.503:  -4232  64   8  908
1477474435.503:  -4173  64   8  908
1477474435.504:  -4108  64   8  908
1477474435.507:  -4098  64   8  908
1477474435.507:  -4161  64   8  908
1477474435.507:  -4241  64   8  908
1477474435.507:  -4262  64   8  908
1477474435.508:  -4196  64   8  908
1477474435.508:  -4077  64   8  908
1477474435.509:  -3953  64   8  908
1477474435.509:  -3828  64   8  908
1477474435.509:  -3694  64   8  908
1477474435.509:  -3574  64   8  908
1477474435.510:  -3523  64   8  908
1477474435.513:  -3557  64   8  908
1477474435.514:  -3617  64   8  908
1477474435.523:  -3628  64   8  908
1477474435.523:  -3575  64   8  908
1477474435.523:  -3508  64   8  908
1477474435.523:  -3475  64   8  908
1477474435.523:  -3467  64   8  908
1477474435.526:  -3442  64   8  908
1477474435.528:  -3401  64   8  908
1477474435.532:  -3400  64   8  908
1477474435.540:  -3484  64   8  908
1477474435.541:  -3622  64   8  908
1477474435.542:  -3735  64   8  908
1477474435.542:  -3776  64   8  908
1477474435.543:  -3772  64   8  908
1477474435.543:  -3780  64   8  908
1477474435.550:  -3821  64   8  908
1477474435.550:  -3854  64   8  908
1477474435.551:  -3845  64   8  908
1477474435.551:  -3817  64   8  908
1477474435.551:  -3829  64   8  908
1477474435.554:  -3901  64   8  908
1477474435.557:  -3992  64   8  908
1477474435.560:  -4044  64   8  908
1477474435.561:  -4051  64   8  908
1477474435.564:  -4053  64   8  908
1477474435.579:  -4084  64   8  908
1477474435.579:  -4134  64   8  908
1477474435.579:  -4189  64   8  908
1477474435.579:  -4261  64   8  908
1477474435.580:  -4386  64   8  908
1477474435.580:  -4555  64   8  908
1477474435.580:  -4707  64   8  908
1477474435.581:  -4791  64   8  908
1477474435.581:  -4809  64   8  908
1477474435.581:  -4803  64   8  908
1477474435.585:  -4798  64   8  908
1477474435.588:  -4778  64   8  908
1477474435.596:  -4733  64   8  908
1477474435.596:  -4705  64   8  908
1477474435.596:  -4751  64   8  908
1477474435.596:  -4869  64   8  908
1477474435.597:  -4987  64   8  908
1477474435.597:  -5043  64   8  908
1477474435.602:  -5043  64   8  908
1477474435.602:  -5033  64   8  908
1477474435.605:  -5031  64   8  908
1477474435.605:  -5002  64   8  908
1477474435.616:  -4919  64   8  908
1477474435.616:  -4816  64   8  908
1477474435.616:  -4762  64   8  908
1477474435.616:  -4782  64   8  908
1477474435.616:  -4828  64   8  908
1477474435.617:  -4839  64   8  908
1477474435.618:  -4809  64   8  908
1477474435.619:  -4773  64   8  908
1477474435.697:  -4760  64   8  908
1477474435.697:  -4760  64   8  908
1477474435.717:  -4750  64   8  908
1477474435.717:  -4736  64   8  908
1477474435.717:  -4758  64   8  908
1477474435.718:  -4831  64   8  908
1477474435.718:  -4918  64   8  908
1477474435.718:  -4964  64   8  908
1477474435.718:  -4943  64   8  908
1477474435.718:  -4869  64   8  908
1477474435.718:  -4767  64   8  908
1477474435.718:  -4641  64   8  908
1477474435.719:  -4491  64   8  908
1477474435.719:  -4343  64   8  908
1477474435.719:  -4241  64   8  908
1477474435.719:  -4205  64   8  908
1477474435.719:  -4199  64   8  908
1477474435.719:  -4178  64   8  908
1477474435.719:  -4131  64   8  908
1477474435.719:  -4084  64   8  908
1477474435.720:  -4053  64   8  908
1477474435.720:  -4010  64   8  908
1477474435.720:  -3921  64   8  908
1477474435.720:  -3804  64   8  908
1477474435.720:  -3725  64   8  908
1477474435.720:  -3734  64   8  908
1477474435.720:  -3792  64   8  908
1477474435.721:  -3818  64   8  908
1477474435.721:  -3768  64   8  908
1477474435.721:  -3671  64   8  908
1477474435.721:  -3581  64   8  908
1477474435.721:  -3521  64   8  908
1477474435.721:  -3464  64   8  908
1477474435.721:  -3390  64   8  908
1477474435.722:  -3320  64   8  908
1477474435.722:  -3296  64   8  908
1477474435.722:  -3325  64   8  908
1477474435.722:  -3375  64   8  908
1477474435.722:  -3405  64   8  908
1477474435.722:  -3394  64   8  908
1477474435.722:  -3347  64   8  908
1477474435.723:  -3277  64   8  908
1477474435.723:  -3195  64   8  908
1477474435.723:  -3114  64   8  908
1477474435.723:  -3058  64   8  908
1477474435.723:  -3046  64   8  908
1477474435.723:  -3074  64   8  908
1477474435.723:  -3111  64   8  908
1477474435.724:  -3122  64   8  908
1477474435.724:  -3091  64   8  908
1477474435.724:  -3030  64   8  908
1477474435.725:  -2964  64   8  908
1477474435.725:  -2906  64   8  908
1477474435.728:  -2844  64   8  908
1477474435.733:  -2774  64   8  908
1477474435.733:  -2710  64   8  908
1477474435.734:  -2678  64   8  908
1477474435.735:  -2682  64   8  908
1477474435.743:  -2689  64   8  908
1477474435.744:  -2662  64   8  908
1477474435.750:  -2590  64   8  908
1477474435.750:  -2504  64   8  908
1477474435.750:  -2430  64   8  908
1477474435.750:  -2366  64   8  908
1477474435.750:  -2301  64   8  908
1477474435.751:  -2259  64   8  908
1477474435.752:  -2290  64   8  908
1477474435.753:  -2404  64   8  908
1477474435.758:  -2541  64   8  908
1477474435.759:  -2625  64   8  908
1477474435.770:  -2646  64   8  908
1477474435.770:  -2655  64   8  908
1477474435.770:  -2691  64   8  908
1477474435.770:  -2726  64   8  908
1477474435.771:  -2721  64   8  908
1477474435.771:  -2705  64   8  908
1477474435.771:  -2756  64   8  908
1477474435.775:  -2888  64   8  908
1477474435.775:  -3018  64   8  908
1477474435.777:  -3048  64   8  908
1477474435.778:  -2981  64   8  908
1477474435.811:  -2911  64   8  908
1477474435.812:  -2909  64   8  908
1477474435.812:  -2941  64   8  908
1477474435.813:  -2934  64   8  908
1477474435.814:  -2887  64   8  908
1477474435.815:  -2879  64   8  908
1477474435.815:  -2959  64   8  908
1477474435.835:  -3085  64   8  908
1477474435.836:  -3167  64   8  908
1477474435.837:  -3163  64   8  908
1477474435.837:  -3112  64   8  908
1477474435.838:  -3072  64   8  908
1477474435.839:  -3055  64   8  908
1477474435.840:  -3039  64   8  908
1477474435.840:  -3019  64   8  908
1477474435.841:  -3031  64   8  908
1477474435.841:  -3105  64   8  908
1477474435.842:  -3229  64   8  908
1477474435.843:  -3350  64   8  908
1477474435.843:  -3422  64   8  908
1477474435.844:  -3435  64   8  908
1477474435.845:  -3415  64   8  908
1477474435.845:  -3390  64   8  908
1477474435.859:  -3371  64   8  908
1477474435.860:  -3360  64   8  908
1477474435.861:  -3367  64   8  908
1477474435.861:  -3404  64   8  908
1477474435.862:  -3463  64   8  908
1477474435.863:  -3514  64   8  908
1477474435.863:  -3519  64   8  908
1477474435.864:  -3467  64   8  908
1477474435.864:  -3385  64   8  908
1477474435.865:  -3323  64   8  908
1477474435.866:  -3314  64   8  908
1477474435.867:  -3367  64   8  908
1477474435.877:  -3464  64   8  908
1477474435.878:  -3574  64   8  908
1477474435.879:  -3661  64   8  908
1477474435.879:  -3708  64   8  908
1477474435.882:  -3718  64   8  908
1477474435.882:  -3710  64   8  908
1477474435.883:  -3690  64   8  908
1477474435.884:  -3647  64   8  908
1477474435.884:  -3574  64   8  908
1477474435.885:  -3494  64   8  908
1477474435.885:  -3460  64   8  908
1477474435.886:  -3516  64   8  908
1477474435.898:  -3644  64   8  908
1477474435.899:  -3777  64   8  908
1477474435.899:  -3858  64   8  908
1477474435.900:  -3879  64   8  908
1477474435.900:  -3868  64   8  908
1477474435.901:  -3859  64   8  908
1477474435.901:  -3853  64   8  908
1477474435.902:  -3842  64   8  908
1477474435.902:  -3835  64   8  908
1477474435.903:  -3864  64   8  908
1477474435.904:  -3938  64   8  908
1477474435.904:  -4036  64   8  908
1477474435.905:  -4112  64   8  908
1477474435.905:  -4139  64   8  908
1477474435.906:  -4122  64   8  908
1477474435.907:  -4093  64   8  908
1477474435.922:  -4077  64   8  908
1477474435.923:  -4082  64   8  908
1477474435.923:  -4100  64   8  908
1477474435.924:  -4122  64   8  908
1477474435.925:  -4134  64   8  908
1477474435.925:  -4127  64   8  908
1477474435.926:  -4100  64   8  908
1477474435.927:  -4064  64   8  908
1477474435.927:  -4023  64   8  908
1477474435.928:  -3967  64   8  908
1477474435.929:  -3875  64   8  908
1477474435.930:  -3746  64   8  908
1477474435.941:  -3618  64   8  908
1477474435.941:  -3553  64   8  908
1477474435.942:  -3572  64   8  908
1477474435.942:  -3627  64   8  908
1477474435.942:  -3643  64   8  908
1477474435.942:  -3585  64   8  908
1477474435.942:  -3476  64   8  908
1477474435.942:  -3364  64   8  908
1477474435.945:  -3271  64   8  908
1477474435.949:  -3187  64   8  908
1477474435.952:  -3109  64   8  908
1477474435.954:  -3057  64   8  908
1477474435.957:  -3048  64   8  908
1477474435.957:  -3064  64   8  908
1477474435.958:  -3074  64   8  908
1477474435.959:  -3060  64   8  908
1477474435.976:  -3028  64   8  908
1477474435.976:  -2983  64   8  908
1477474435.976:  -2920  64   8  908
1477474435.977:  -2832  64   8  908
1477474435.977:  -2737  64   8  908
1477474435.977:  -2669  64   8  908
1477474435.977:  -2654  64   8  908
1477474435.977:  -2682  64   8  908
1477474435.977:  -2717  64   8  908
1477474435.978:  -2731  64   8  908
1477474435.980:  -2709  64   8  908
1477474435.981:  -2660  64   8  908
1477474435.986:  -2605  64   8  908
1477474435.987:  -2559  64   8  908
1477474435.991:  -2534  64   8  908
1477474435.991:  -2538  64   8  908
1477474435.998:  -2576  64   8  908
1477474435.998:  -2633  64   8  908
1477474435.998:  -2679  64   8  908
1477474435.999:  -2688  64   8  908
1477474435.999:  -2654  64   8  908
1477474436.004:  -2595  64   8  908
1477474436.006:  -2532  64   8  908
1477474436.008:  -2467  64   8  908
1477474436.017:  -2392  64   8  908
1477474436.017:  -2316  64   8  908
1477474436.017:  -2263  64   8  908
1477474436.017:  -2241  64   8  908
1477474436.018:  -2223  64   8  908
1477474436.018:  -2179  64   8  908
1477474436.020:  -2102  64   8  908
1477474436.023:  -2017  64   8  908
1477474436.023:  -1942  64   8  908
1477474436.024:  -1870  64   8  908
1477474436.028:  -1800  64   8  908
1477474436.031:  -1755  64   8  908
1477474436.037:  -1773  64   8  908
1477474436.037:  -1851  64   8  908
1477474436.037:  -1936  64   8  908
1477474436.037:  -1975  64   8  908
1477474436.044:  -1956  64   8  908
1477474436.044:  -1904  64   8  908
1477474436.046:  -1837  64   8  908
1477474436.046:  -1746  64   8  908
1477474436.056:  -1625  64   8  908
1477474436.056:  -1520  64   8  908
1477474436.057:  -1500  64   8  908
1477474436.057:  -1579  64   8  908
1477474436.057:  -1681  64   8  908
1477474436.058:  -1710  64   8  908
1477474436.059:  -1646  64   8  908
1477474436.060:  -1566  64   8  908
1477474436.061:  -1554  64   8  908
1477474436.063:  -1610  64   8  908
1477474436.066:  -1656  64   8  908
1477474436.068:  -1641  64   8  908
1477474436.069:  -1605  64   8  908
1477474436.072:  -1633  64   8  908
1477474436.074:  -1738  64   8  908
1477474436.080:  -1848  64   8  908
1477474436.080:  -1882  64   8  908
1477474436.081:  -1826  64   8  908
1477474436.082:  -1730  64   8  908
1477474436.083:  -1637  64   8  908
1477474436.086:  -1543  64   8  908
1477474436.088:  -1449  64   8  908
1477474436.101:  -1388  64   8  908
1477474436.101:  -1401  64   8  908
1477474436.102:  -1466  64   8  908
1477474436.102:  -1515  64   8  908
1477474436.102:  -1507  64   8  908
1477474436.132:  -1469  64   8  908
1477474436.132:  -1449  64   8  908
1477474436.132:  -1450  64   8  908
1477474436.132:  -1428  64   8  908
1477474436.133:  -1373  64   8  908
1477474436.134:  -1342  64   8  908
1477474436.134:  -1400  64   8  908
1477474436.135:  -1517  64   8  908
1477474436.135:  -1600  64   8  908
1477474436.136:  -1592  64   8  908
1477474436.137:  -1534  64   8  908
1477474436.141:  -1498  64   8  908
1477474436.141:  -1485  64   8  908
1477474436.141:  -1432  64   8  908
1477474436.141:  -1317  64   8  908
1477474436.142:  -1219  64   8  908
1477474436.142:  -1238  64   8  908
1477474436.142:  -1376  64   8  908
1477474436.142:  -1535  64   8  908
1477474436.143:  -1632  64   8  908
1477474436.143:  -1683  64   8  908
1477474436.144:  -1753  64   8  908
1477474436.146:  -1856  64   8  908
1477474436.148:  -1934  64   8  908
1477474436.149:  -1933  64   8  908
1477474436.151:  -1883  64   8  908
1477474436.152:  -1856  64   8  908
1477474436.153:  -1876  64   8  908
1477474436.154:  -1902  64   8  908
1477474436.171:  -1895  64   8  908
1477474436.171:  -1871  64   8  908
1477474436.172:  -1868  64   8  908
1477474436.172:  -1891  64   8  908
1477474436.173:  -1909  64   8  908
1477474436.173:  -1905  64   8  908
1477474436.173:  -1915  64   8  908
1477474436.173:  -1985  64   8  908
1477474436.193:  -2108  64   8  908
1477474436.193:  -2220  64   8  908
1477474436.195:  -2268  64   8  908
1477474436.196:  -2257  64   8  908
1477474436.197:  -2216  64   8  908
1477474436.200:  -2159  64   8  908
1477474436.201:  -2079  64   8  908
1477474436.202:  -1984  64   8  908
1477474436.202:  -1916  64   8  908
1477474436.203:  -1914  64   8  908
1477474436.215:  -1976  64   8  908
1477474436.215:  -2051  64   8  908
1477474436.216:  -2093  64   8  908
1477474436.216:  -2104  64   8  908
1477474436.217:  -2103  64   8  908
1477474436.217:  -2091  64   8  908
1477474436.218:  -2039  64   8  908
1477474436.219:  -1921  64   8  908
1477474436.219:  -1761  64   8  908
1477474436.220:  -1639  64   8  908
1477474436.221:  -1620  64   8  908
1477474436.222:  -1694  64   8  908
1477474436.222:  -1784  64   8  908
1477474436.223:  -1822  64   8  908
1477474436.223:  -1830  64   8  908
1477474436.225:  -1888  64   8  908
1477474436.235:  -2032  64   8  908
1477474436.235:  -2184  64   8  908
1477474436.235:  -2229  64   8  908
1477474436.235:  -2150  64   8  908
1477474436.235:  -2068  64   8  908
1477474436.235:  -2095  64   8  908
1477474436.236:  -2185  64   8  908
1477474436.236:  -2157  64   8  908
1477474436.242:  -1889  64   8  908
1477474436.243:  -1435  64   8  908
1477474436.244:   -943  64   8  908
1477474436.246:   -484  64   8  908
1477474436.247:    -11  64   8  908
1477474436.248:    517  64   8  908
1477474436.249:   1049  64   8  908
1477474436.251:   1508  64   8  908
1477474436.268:   1898  64   8  908
1477474436.269:   2295  64   8  953
1477474436.269:   2743  64   8  953
1477474436.269:   3210  64   8  953
1477474436.270:   3677  64   8  953
1477474436.270:   4211  64   8  953
1477474436.270:   4901  64   8  953
1477474436.270:   5729  64   8  953
1477474436.270:   6569  64   8  953
1477474436.273:   7312  64   8  953
1477474436.274:   7952  64   8  953
1477474436.275:   8515  64   8  953
1477474436.278:   8940  64   8  953
1477474436.279:   9093  64   8  953
1477474436.281:   8895  64   8  953
1477474436.283:   8380  64   8  953
1477474436.287:   7639  64   8  953
1477474436.288:   6715  64   8  953
1477474436.309:   5610  64   8  953
1477474436.309:   4375  64   8  953
1477474436.309:   3155  64   8  953
1477474436.309:   2099  64   8  953
1477474436.309:   1270  64   8  953
1477474436.309:    639  64   8  953
1477474436.309:    164  64   8  953
1477474436.310:   -177  64   8  953
1477474436.310:   -403  64   8  953
1477474436.310:   -579  64   8  953
1477474436.310:   -803  64   8  953
1477474436.310:  -1132  64   8  953
1477474436.341:  -1523  64   8  953
1477474436.341:  -1886  64   8  953
1477474436.341:  -2169  64   8  953
1477474436.342:  -2395  64   8  953
1477474436.344:  -2616  64   8  953
1477474436.347:  -2832  64   8  953
1477474436.358:  -2989  64   8  953
1477474436.359:  -3054  64   8  953
1477474436.359:  -3084  64   8  953
1477474436.359:  -3180  64   8  953
1477474436.360:  -3374  64   8  953
1477474436.360:  -3594  64   8  953
1477474436.360:  -3738  64   8  953
1477474436.360:  -3774  64   8  953
1477474436.361:  -3746  64   8  953
1477474436.361:  -3714  64   8  953
1477474436.361:  -3695  64   8  953
1477474436.361:  -3684  64   8  953
1477474436.362:  -3686  64   8  953
1477474436.362:  -3715  64   8  953
1477474436.362:  -3755  64   8  953
1477474436.362:  -3777  64   8  953
1477474436.362:  -3779  64   8  953
1477474436.363:  -3779  64   8  953
1477474436.363:  -3781  64   8  953
1477474436.364:  -3754  64   8  953
1477474436.365:  -3671  64   8  953
1477474436.367:  -3564  64   8  953
1477474436.379:  -3500  64   8  953
1477474436.379:  -3517  64   8  953
1477474436.379:  -3584  64   8  953
1477474436.379:  -3654  64   8  953
1477474436.379:  -3714  64   8  953
1477474436.380:  -3775  64   8  953
1477474436.380:  -3826  64   8  953
1477474436.382:  -3828  64   8  953
1477474436.382:  -3766  64   8  953
1477474436.385:  -3689  64   8  953
1477474436.387:  -3668  64   8  953
1477474436.396:  -3723  64   8  953
1477474436.410:  -3804  64   8  953
1477474436.411:  -3853  64   8  953
1477474436.411:  -3865  64   8  953
1477474436.411:  -3877  64   8  953
1477474436.413:  -3906  64   8  953
1477474436.413:  -3921  64   8  953
1477474436.413:  -3884  64   8  953
1477474436.414:  -3799  64   8  953
1477474436.414:  -3723  64   8  953
1477474436.414:  -3710  64   8  953
1477474436.414:  -3760  64   8  953
1477474436.414:  -3818  64   8  953
1477474436.415:  -3831  64   8  953
1477474436.420:  -3797  64   8  953
1477474436.420:  -3748  64   8  953
1477474436.421:  -3704  64   8  953
1477474436.423:  -3651  64   8  953
1477474436.424:  -3559  64   8  953
1477474436.435:  -3440  64   8  953
1477474436.435:  -3342  64   8  953
1477474436.435:  -3303  64   8  953
1477474436.435:  -3297  64   8  953
1477474436.436:  -3258  64   8  953
1477474436.437:  -3159  64   8  953
1477474436.438:  -3036  64   8  953
1477474436.440:  -2937  64   8  953
1477474436.443:  -2861  64   8  953
1477474436.447:  -2766  64   8  953
1477474436.468:  -2638  64   8  953
1477474436.469:  -2533  64   8  953
1477474436.469:  -2535  64   8  953
1477474436.469:  -2653  64   8  953
1477474436.469:  -2813  64   8  953
1477474436.470:  -2926  64   8  953
1477474436.470:  -2961  64   8  953
1477474436.470:  -2941  64   8  953
1477474436.470:  -2886  64   8  953
1477474436.470:  -2799  64   8  953
1477474436.471:  -2678  64   8  953
1477474436.475:  -2548  64   8  953
1477474436.475:  -2448  64   8  953
1477474436.476:  -2394  64   8  953
1477474436.476:  -2366  64   8  953
1477474436.476:  -2352  64   8  953
1477474436.477:  -2354  64   8  953
1477474436.479:  -2371  64   8  953
1477474436.481:  -2387  64   8  953
1477474436.483:  -2394  64   8  953
1477474436.493:  -2411  64   8  953
1477474436.493:  -2472  64   8  953
1477474436.493:  -2586  64   8  953
1477474436.494:  -2722  64   8  953
1477474436.494:  -2832  64   8  953
1477474436.495:  -2893  64   8  953
1477474436.497:  -2914  64   8  953
1477474436.499:  -2910  64   8  953
1477474436.501:  -2879  64   8  953
1477474436.502:  -2808  64   8  953
1477474436.512:  -2695  64   8  953
1477474436.512:  -2567  64   8  953
1477474436.512:  -2474  64   8  953
1477474436.513:  -2464  64   8  953
1477474436.513:  -2525  64   8  953
1477474436.516:  -2591  64   8  953
1477474436.516:  -2597  64   8  953
1477474436.521:  -2539  64   8  953
1477474436.521:  -2467  64   8  953
1477474436.522:  -2430  64   8  953
1477474436.525:  -2416  64   8  953
1477474436.529:  -2383  64   8  953
1477474436.540:  -2332  64   8  953
1477474436.540:  -2321  64   8  953
1477474436.541:  -2384  64   8  953
1477474436.541:  -2481  64   8  953
1477474436.541:  -2536  64   8  953
1477474436.542:  -2520  64   8  953
1477474436.542:  -2474  64   8  953
1477474436.543:  -2444  64   8  953
1477474436.544:  -2428  64   8  953
1477474436.548:  -2396  64   8  953
1477474436.560:  -2350  64   8  953
1477474436.561:  -2333  64   8  953
1477474436.561:  -2366  64   8  953
1477474436.561:  -2414  64   8  953
1477474436.562:  -2423  64   8  953
1477474436.564:  -2375  64   8  953
1477474436.565:  -2293  64   8  953
1477474436.566:  -2202  64   8  953
1477474436.567:  -2103  64   8  953
1477474436.567:  -1994  64   8  953
1477474436.567:  -1900  64   8  953
1477474436.570:  -1855  64   8  953
1477474436.640:  -1865  64   8  953
1477474436.640:  -1899  64   8  953
1477474436.640:  -1925  64   8  953
1477474436.640:  -1924  64   8  953
1477474436.640:  -1884  64   8  953
1477474436.641:  -1796  64   8  953
1477474436.641:  -1671  64   8  953
1477474436.641:  -1553  64   8  953
1477474436.641:  -1490  64   8  953
1477474436.641:  -1494  64   8  953
1477474436.641:  -1533  64   8  953
1477474436.641:  -1560  64   8  953
1477474436.641:  -1559  64   8  953
1477474436.642:  -1539  64   8  953
1477474436.642:  -1515  64   8  953
1477474436.642:  -1487  64   8  953
1477474436.642:  -1459  64   8  953
1477474436.642:  -1442  64   8  953
1477474436.642:  -1444  64   8  953
1477474436.642:  -1459  64   8  953
1477474436.642:  -1480  64   8  953
1477474436.643:  -1506  64   8  953
1477474436.643:  -1552  64   8  953
1477474436.643:  -1614  64   8  953
1477474436.643:  -1658  64   8  953
1477474436.643:  -1642  64   8  953
1477474436.643:  -1556  64   8  953
1477474436.643:  -1439  64   8  953
1477474436.644:  -1359  64   8  953
1477474436.644:  -1361  64   8  953
1477474436.645:  -1441  64   8  953
1477474436.645:  -1547  64   8  953
1477474436.645:  -1624  64   8  953
1477474436.645:  -1653  64   8  953
1477474436.645:  -1649  64   8  953
1477474436.646:  -1633  64   8  953
1477474436.647:  -1611  64   8  953
1477474436.647:  -1574  64   8  953
1477474436.648:  -1526  64   8  953
1477474436.649:  -1488  64   8  953
1477474436.650:  -1486  64   8  953
1477474436.651:  -1518  64   8  953
1477474436.658:  -1553  64   8  953
1477474436.659:  -1563  64   8  953
1477474436.659:  -1545  64   8  953
1477474436.660:  -1510  64   8  953
1477474436.663:  -1462  64   8  953
1477474436.663:  -1396  64   8  953
1477474436.681:  -1307  64   8  953
1477474436.681:  -1215  64   8  953
1477474436.681:  -1154  64   8  953
1477474436.681:  -1138  64   8  953
1477474436.681:  -1155  64   8  953
1477474436.681:  -1185  64   8  953
1477474436.682:  -1219  64   8  953
1477474436.682:  -1258  64   8  953
1477474436.686:  -1292  64   8  953
1477474436.686:  -1305  64   8  953
1477474436.686:  -1291  64   8  953
1477474436.688:  -1286  64   8  953
1477474436.690:  -1334  64   8  953
1477474436.693:  -1434  64   8  953
1477474436.702:  -1517  64   8  953
1477474436.702:  -1513  64   8  953
1477474436.703:  -1420  64   8  953
1477474436.703:  -1306  64   8  953
1477474436.703:  -1232  64   8  953
1477474436.703:  -1190  64   8  953
1477474436.705:  -1126  64   8  953
1477474436.707:  -1027  64   8  953
1477474436.712:   -948  64   8  953
1477474436.713:   -947  64   8  953
1477474436.728:  -1008  64   8  953
1477474436.728:  -1053  64   8  953
1477474436.729:  -1034  64   8  953
1477474436.729:   -975  64   8  953
1477474436.730:   -916  64   8  953
1477474436.730:   -859  64   8  953
1477474436.731:   -763  64   8  953
1477474436.731:   -622  64   8  953
1477474436.731:   -502  64   8  953
1477474436.732:   -473  64   8  953
1477474436.734:   -522  64   8  953
1477474436.735:   -567  64   8  953
1477474436.739:   -546  64   8  953
1477474436.739:   -473  64   8  953
1477474436.751:   -414  64   8  953
1477474436.751:   -399  64   8  953
1477474436.751:   -409  64   8  953
1477474436.751:   -422  64   8  953
1477474436.752:   -459  64   8  953
1477474436.752:   -556  64   8  953
1477474436.752:   -705  64   8  953
1477474436.754:   -857  64   8  953
1477474436.758:   -968  64   8  953
1477474436.759:  -1030  64   8  953
1477474436.760:  -1050  64   8  953
1477474436.761:  -1026  64   8  953
1477474436.768:   -954  64   8  953
1477474436.772:   -856  64   8  953
1477474436.785:   -782  64   8  953
1477474436.786:   -767  64   8  953
1477474436.787:   -790  64   8  953
1477474436.788:   -808  64   8  953
1477474436.790:   -794  64   8  953
1477474436.791:   -754  64   8  953
1477474436.791:   -702  64   8  953
1477474436.792:   -634  64   8  953
1477474436.793:   -537  64   8  953
1477474436.793:   -416  64   8  953
1477474436.794:   -303  64   8  953
1477474436.794:   -243  64   8  953
1477474436.808:   -261  64   8  953
1477474436.808:   -350  64   8  953
1477474436.808:   -474  64   8  953
1477474436.808:   -576  64   8  953
1477474436.808:   -616  64   8  953
1477474436.808:   -594  64   8  953
1477474436.809:   -552  64   8  953
1477474436.809:   -529  64   8  953
1477474436.809:   -535  64   8  953
1477474436.812:   -547  64   8  953
1477474436.814:   -548  64   8  953
1477474436.815:   -540  64   8  953
1477474436.819:   -537  64   8  953
1477474436.819:   -542  64   8  953
1477474436.830:   -538  64   8  953
1477474436.830:   -503  64   8  953
1477474436.830:   -441  64   8  953
1477474436.830:   -376  64   8  953
1477474436.830:   -346  64   8  953
1477474436.830:   -372  64   8  953
1477474436.833:   -442  64   8  953
1477474436.836:   -512  64   8  953
1477474436.837:   -541  64   8  953
1477474436.839:   -527  64   8  953
1477474436.840:   -496  64   8  953
1477474436.841:   -456  64   8  953
1477474436.851:   -396  64   8  953
1477474436.851:   -301  64   8  953
1477474436.851:   -197  64   8  953
1477474436.851:   -148  64   8  953
1477474436.852:   -200  64   8  953
1477474436.853:   -326  64   8  953
1477474436.854:   -449  64   8  953
1477474436.858:   -516  64   8  953
1477474436.859:   -529  64   8  953
1477474436.865:   -526  64   8  953
1477474436.871:   -523  64   8  953
1477474436.871:   -509  64   8  953
1477474436.872:   -482  64   8  953
1477474436.873:   -473  64   8  953
1477474436.874:   -511  64   8  953
1477474436.874:   -575  64   8  953
1477474436.878:   -614  64   8  953
1477474436.878:   -613  64   8  953
1477474436.881:   -603  64   8  953
1477474436.881:   -615  64   8  953
1477474436.889:   -623  64   8  953
1477474436.890:   -576  64   8  953
1477474436.890:   -472  64   8  953
1477474436.892:   -398  64   8  953
1477474436.892:   -440  64   8  953
1477474436.893:   -588  64   8  953
1477474436.895:   -730  64   8  953
1477474436.896:   -777  64   8  953
1477474436.898:   -748  64   8  953
1477474436.901:   -725  64   8  953
1477474436.909:   -751  64   8  953
1477474436.909:   -790  64   8  953
1477474436.909:   -792  64   8  953
1477474436.910:   -776  64   8  953
1477474436.913:   -806  64   8  953
1477474436.913:   -912  64   8  953
1477474436.915:  -1049  64   8  953
1477474436.919:  -1148  64   8  953
1477474436.919:  -1192  64   8  953
1477474436.920:  -1217  64   8  953
1477474436.922:  -1248  64   8  953
1477474436.926:  -1268  64   8  953
1477474436.950:  -1251  64   8  953
1477474436.950:  -1217  64   8  953
1477474436.951:  -1227  64   8  953
1477474436.951:  -1316  64   8  953
1477474436.952:  -1442  64   8  953
1477474436.952:  -1534  64   8  953
1477474436.953:  -1559  64   8  953
1477474436.953:  -1540  64   8  953
1477474436.953:  -1509  64   8  953
1477474436.953:  -1471  64   8  953
1477474436.954:  -1409  64   8  953
1477474436.954:  -1332  64   8  953
1477474436.955:  -1281  64   8  953
1477474436.955:  -1291  64   8  953
1477474436.955:  -1344  64   8  953
1477474436.956:  -1395  64   8  953
1477474436.960:  -1418  64   8  953
1477474436.960:  -1420  64   8  953
1477474436.961:  -1407  64   8  953
1477474436.963:  -1365  64   8  953
1477474436.964:  -1270  64   8  953
1477474436.967:  -1136  64   8  953
1477474436.970:  -1029  64   8  953
1477474436.975:  -1008  64   8  953
1477474436.990:  -1066  64   8  953
1477474436.990:  -1138  64   8  953
1477474436.992:  -1168  64   8  953
1477474436.992:  -1156  64   8  953
1477474436.992:  -1139  64   8  953
1477474436.992:  -1151  64   8  953
1477474436.993:  -1178  64   8  953
1477474436.993:  -1194  64   8  953
1477474436.993:  -1197  64   8  953
1477474436.994:  -1210  64   8  953
1477474436.994:  -1246  64   8  953
1477474436.994:  -1292  64   8  953
1477474436.996:  -1329  64   8  953
1477474437.001:  -1349  64   8  953
1477474437.010:  -1352  64   8  953
1477474437.010:  -1337  64   8  953
1477474437.010:  -1296  64   8  953
1477474437.011:  -1236  64   8  953
1477474437.011:  -1192  64   8  953
1477474437.011:  -1196  64   8  953
1477474437.012:  -1247  64   8  953
1477474437.014:  -1308  64   8  953
1477474437.016:  -1340  64   8  953
1477474437.020:  -1341  64   8  953
1477474437.020:  -1331  64   8  953
1477474437.022:  -1322  64   8  953
1477474437.024:  -1314  64   8  953
1477474437.026:  -1303  64   8  953
1477474437.028:  -1301  64   8  953
1477474437.029:  -1330  64   8  953
1477474437.033:  -1401  64   8  953
1477474437.034:  -1498  64   8  953
1477474437.047:  -1587  64   8  953
1477474437.047:  -1645  64   8  953
1477474437.047:  -1669  64   8  953
1477474437.048:  -1666  64   8  953
1477474437.048:  -1654  64   8  953
1477474437.049:  -1646  64   8  953
1477474437.049:  -1653  64   8  953
1477474437.052:  -1688  64   8  953
1477474437.053:  -1765  64   8  953
1477474437.054:  -1870  64   8  953
1477474437.057:  -1968  64   8  953
1477474437.057:  -2022  64   8  953
1477474437.061:  -2024  64   8  953
1477474437.061:  -1999  64   8  953
1477474437.063:  -1977  64   8  953
1477474437.064:  -1967  64   8  953
1477474437.080:  -1960  64   8  953
1477474437.080:  -1958  64   8  953
1477474437.080:  -1989  64   8  953
1477474437.081:  -2065  64   8  953
1477474437.081:  -2159  64   8  953
1477474437.082:  -2225  64   8  953
1477474437.082:  -2239  64   8  953
1477474437.082:  -2213  64   8  953
1477474437.082:  -2175  64   8  953
1477474437.084:  -2132  64   8  953
1477474437.089:  -2073  64   8  953
1477474437.090:  -2011  64   8  953
1477474437.112:  -1983  64   8  953
1477474437.113:  -2012  64   8  953
1477474437.114:  -2078  64   8  953
1477474437.114:  -2139  64   8  953
1477474437.114:  -2167  64   8  953
1477474437.115:  -2161  64   8  953
1477474437.115:  -2125  64   8  953
1477474437.140:  -2059  64   8  953
1477474437.140:  -1976  64   8  953
1477474437.140:  -1919  64   8  953
1477474437.141:  -1937  64   8  953
1477474437.141:  -2020  64   8  953
1477474437.141:  -2102  64   8  953
1477474437.141:  -2121  64   8  953
1477474437.142:  -2074  64   8  953
1477474437.142:  -2016  64   8  953
1477474437.143:  -1983  64   8  953
1477474437.147:  -1957  64   8  953
1477474437.154:  -1894  64   8  953
1477474437.154:  -1788  64   8  953
1477474437.154:  -1691  64   8  953
1477474437.154:  -1672  64   8  953
1477474437.155:  -1735  64   8  953
1477474437.157:  -1814  64   8  953
1477474437.157:  -1827  64   8  953
1477474437.157:  -1751  64   8  953
1477474437.158:  -1636  64   8  953
1477474437.158:  -1543  64   8  953
1477474437.158:  -1487  64   8  953
1477474437.158:  -1435  64   8  953
1477474437.159:  -1372  64   8  953
1477474437.159:  -1340  64   8  953
1477474437.159:  -1379  64   8  953
1477474437.159:  -1473  64   8  953
1477474437.159:  -1537  64   8  953
1477474437.160:  -1502  64   8  953
1477474437.161:  -1399  64   8  953
1477474437.163:  -1343  64   8  953
1477474437.174:  -1398  64   8  953
1477474437.174:  -1500  64   8  953
1477474437.174:  -1527  64   8  953
1477474437.174:  -1434  64   8  953
1477474437.175:  -1303  64   8  953
1477474437.175:  -1244  64   8  953
1477474437.177:  -1254  64   8  953
1477474437.181:  -1197  64   8  953
1477474437.192:   -946  64   8  953
1477474437.193:   -505  64   8  953
1477474437.193:     14  64   8  953
1477474437.194:    511  63   8  947
1477474437.194:    965  63   8  947
1477474437.194:   1396  63   8  947
1477474437.194:   1817  63   8  947
1477474437.194:   2231  63   8  947
1477474437.199:   2656  63   8  947
1477474437.199:   3118  63   8  947
1477474437.202:   3602  63   8  947
1477474437.202:   4062  63   8  947
1477474437.205:   4503  63   8  947
1477474437.207:   5004  63   8  947
1477474437.208:   5641  63   8  947
1477474437.210:   6388  63   8  947
1477474437.212:   7143  63   8  947
1477474437.216:   7840  63   8  947
1477474437.230:   8496  63   8  947
1477474437.231:   9117  63   8  947
1477474437.232:   9606  63   8  947
1477474437.232:   9811  63   8  947
1477474437.233:   9660  63   8  947
1477474437.234:   9199  63   8  947
1477474437.235:   8497  63   8  947
1477474437.235:   7561  63   8  947
1477474437.237:   6388  63   8  947
1477474437.240:   5082  63   8  947
1477474437.241:   3840  63   8  947
1477474437.242:   2814  63   8  947
1477474437.242:   2003  63   8  947
1477474437.246:   1330  63   8  947
1477474437.246:    777  63   8  947
1477474437.247:    394  63   8  947
1477474437.265:    186  63   8  947
1477474437.266:     31  63   8  947
1477474437.266:   -243  63   8  947
1477474437.267:   -684  63   8  947
1477474437.267:  -1189  63   8  947
1477474437.267:  -1621  63   8  947
1477474437.267:  -1958  63   8  947
1477474437.267:  -2281  63   8  947
1477474437.267:  -2652  63   8  947
1477474437.268:  -3016  63   8  947
1477474437.268:  -3279  63   8  947
1477474437.269:  -3425  63   8  947
1477474437.272:  -3551  63   8  947
1477474437.273:  -3744  63   8  947
1477474437.274:  -3980  63   8  947
1477474437.277:  -4152  63   8  947
1477474437.286:  -4194  63   8  947
1477474437.286:  -4138  63   8  947
1477474437.286:  -4077  63   8  947
1477474437.286:  -4049  63   8  947
1477474437.288:  -4027  63   8  947
1477474437.288:  -3987  63   8  947
1477474437.295:  -3956  63   8  947
1477474437.297:  -3972  63   8  947
1477474437.309:  -4014  63   8  947
1477474437.310:  -4023  63   8  947
1477474437.310:  -3969  63   8  947
1477474437.311:  -3884  63   8  947
1477474437.313:  -3811  63   8  947
1477474437.314:  -3743  63   8  947
1477474437.315:  -3636  63   8  947
1477474437.316:  -3490  63   8  947
1477474437.328:  -3380  63   8  947
1477474437.329:  -3372  63   8  947
1477474437.330:  -3450  63   8  947
1477474437.330:  -3522  63   8  947
1477474437.331:  -3516  63   8  947
1477474437.332:  -3438  63   8  947
1477474437.332:  -3340  63   8  947
1477474437.333:  -3254  63   8  947
1477474437.333:  -3176  63   8  947
1477474437.334:  -3105  63   8  947
1477474437.335:  -3069  63   8  947
1477474437.335:  -3090  63   8  947
1477474437.336:  -3143  63   8  947
1477474437.337:  -3173  63   8  947
1477474437.338:  -3149  63   8  947
1477474437.341:  -3092  63   8  947
1477474437.343:  -3035  63   8  947
1477474437.344:  -2989  63   8  947
1477474437.350:  -2932  63   8  947
1477474437.350:  -2846  63   8  947
1477474437.350:  -2752  63   8  947
1477474437.351:  -2692  63   8  947
1477474437.353:  -2683  63   8  947
1477474437.357:  -2710  63   8  947
1477474437.369:  -2728  63   8  947
1477474437.369:  -2707  63   8  947
1477474437.369:  -2641  63   8  947
1477474437.370:  -2555  63   8  947
1477474437.370:  -2480  63   8  947
1477474437.370:  -2440  63   8  947
1477474437.370:  -2440  63   8  947
1477474437.372:  -2460  63   8  947
1477474437.374:  -2471  63   8  947
1477474437.375:  -2449  63   8  947
1477474437.377:  -2386  63   8  947
1477474437.381:  -2296  63   8  947
1477474437.388:  -2201  63   8  947
1477474437.389:  -2116  63   8  947
1477474437.390:  -2044  63   8  947
1477474437.390:  -1983  63   8  947
1477474437.390:  -1938  63   8  947
1477474437.391:  -1922  63   8  947
1477474437.396:  -1935  63   8  947
1477474437.396:  -1958  63   8  947
1477474437.397:  -1963  63   8  947
1477474437.398:  -1919  63   8  947
1477474437.409:  -1813  63   8  947
1477474437.409:  -1665  63   8  947
1477474437.409:  -1522  63   8  947
1477474437.409:  -1422  63   8  947
1477474437.409:  -1378  63   8  947
1477474437.411:  -1385  63   8  947
1477474437.415:  -1420  63   8  947
1477474437.416:  -1466  63   8  947
1477474437.417:  -1507  63   8  947
1477474437.418:  -1516  63   8  947
1477474437.423:  -1470  63   8  947
1477474437.424:  -1373  63   8  947
1477474437.431:  -1252  63   8  947
1477474437.431:  -1136  63   8  947
1477474437.432:  -1039  63   8  947
1477474437.432:   -971  63   8  947
1477474437.433:   -941  63   8  947
1477474437.434:   -945  63   8  947
1477474437.435:   -961  63   8  947
1477474437.441:   -959  63   8  947
1477474437.449:   -931  63   8  947
1477474437.449:   -893  63   8  947
1477474437.449:   -863  63   8  947
1477474437.450:   -838  63   8  947
1477474437.450:   -813  63   8  947
1477474437.450:   -812  63   8  947
1477474437.451:   -859  63   8  947
1477474437.454:   -934  63   8  947
1477474437.458:   -973  63   8  947
1477474437.458:   -925  63   8  947
1477474437.467:   -810  63   8  947
1477474437.467:   -693  63   8  947
1477474437.467:   -618  63   8  947
1477474437.468:   -569  63   8  947
1477474437.468:   -522  63   8  947
1477474437.472:   -499  63   8  947
1477474437.472:   -552  63   8  947
1477474437.474:   -683  63   8  947
1477474437.476:   -834  63   8  947
1477474437.476:   -931  63   8  947
1477474437.485:   -951  63   8  947
1477474437.485:   -926  63   8  947
1477474437.485:   -890  63   8  947
1477474437.485:   -850  63   8  947
1477474437.488:   -801  63   8  947
1477474437.489:   -757  63   8  947
1477474437.490:   -746  63   8  947
1477474437.493:   -771  63   8  947
1477474437.503:   -799  63   8  947
1477474437.574:   -796  63   8  947
1477474437.574:   -755  63   8  947
1477474437.574:   -692  63   8  947
1477474437.575:   -628  63   8  947
1477474437.575:   -570  63   8  947
1477474437.575:   -526  63   8  947
1477474437.575:   -510  63   8  947
1477474437.575:   -537  63   8  947
1477474437.575:   -591  63   8  947
1477474437.575:   -636  63   8  947
1477474437.576:   -637  63   8  947
1477474437.576:   -593  63   8  947
1477474437.576:   -527  63   8  947
1477474437.577:   -458  63   8  947
1477474437.577:   -388  63   8  947
1477474437.577:   -313  63   8  947
1477474437.577:   -247  63   8  947
1477474437.577:   -220  63   8  947
1477474437.577:   -239  63   8  947
1477474437.578:   -264  63   8  947
1477474437.578:   -243  63   8  947
1477474437.578:   -150  63   8  947
1477474437.578:     -8  63   8  947
1477474437.578:    143  63   8  947
1477474437.578:    276  63   8  947
1477474437.578:    375  63   8  947
1477474437.579:    424  63   8  947
1477474437.579:    408  63   8  947
1477474437.579:    330  63   8  947
1477474437.579:    232  63   8  947
1477474437.579:    151  63   8  947
1477474437.579:    100  63   8  947
1477474437.580:     65  63   8  947
1477474437.580:     33  63   8  947
1477474437.580:      6  63   8  947
1477474437.580:    -12  63   8  947
1477474437.580:    -36  63   8  947
1477474437.580:    -93  63   8  947
1477474437.580:   -188  63   8  947
1477474437.592:   -291  63   8  947
1477474437.593:   -353  63   8  947
1477474437.594:   -341  63   8  947
1477474437.602:   -258  63   8  947
1477474437.610:   -136  63   8  947
1477474437.610:    -19  63   8  947
1477474437.611:     55  63   8  947
1477474437.611:     75  63   8  947
1477474437.611:     49  63   8  947
1477474437.611:     -2  63   8  947
1477474437.620:    -51  63   8  947
1477474437.620:    -73  63   8  947
1477474437.631:    -49  63   8  947
1477474437.631:     21  63   8  947
1477474437.634:    126  63   8  947
1477474437.634:    245  63   8  947
1477474437.634:    354  63   8  947
1477474437.634:    425  63   8  947
1477474437.635:    428  63   8  947
1477474437.635:    354  63   8  947
1477474437.635:    243  63   8  947
1477474437.635:    162  63   8  947
1477474437.635:    160  63   8  947
1477474437.636:    229  63   8  947
1477474437.637:    321  63   8  947
1477474437.638:    394  63   8  947
1477474437.638:    436  63   8  947
1477474437.639:    455  63   8  947
1477474437.639:    443  63   8  947
1477474437.639:    385  63   8  947
1477474437.640:    293  63   8  947
1477474437.640:    208  63   8  947
1477474437.651:    173  63   8  947
1477474437.652:    199  63   8  947
1477474437.652:    265  63   8  947
1477474437.652:    342  63   8  947
1477474437.652:    407  63   8  947
1477474437.652:    445  63   8  947
1477474437.653:    437  63   8  947
1477474437.653:    355  63   8  947
1477474437.656:    192  63   8  947
1477474437.657:    -20  63   8  947
1477474437.657:   -215  63   8  947
1477474437.658:   -335  63   8  947
1477474437.661:   -372  63   8  947
1477474437.665:   -381  63   8  947
1477474437.673:   -421  63   8  947
1477474437.673:   -504  63   8  947
1477474437.673:   -600  63   8  947
1477474437.673:   -685  63   8  947
1477474437.673:   -774  63   8  947
1477474437.674:   -889  63   8  947
1477474437.679:  -1016  63   8  947
1477474437.679:  -1105  63   8  947
1477474437.681:  -1127  63   8  947
1477474437.682:  -1111  63   8  947
1477474437.694:  -1113  63   8  947
1477474437.694:  -1160  63   8  947
1477474437.694:  -1234  63   8  947
1477474437.694:  -1306  63   8  947
1477474437.694:  -1376  63   8  947
1477474437.694:  -1453  63   8  947
1477474437.698:  -1529  63   8  947
1477474437.698:  -1576  63   8  947
1477474437.699:  -1566  63   8  947
1477474437.702:  -1497  63   8  947
1477474437.703:  -1388  63   8  947
1477474437.707:  -1270  63   8  947
1477474437.716:  -1173  63   8  947
1477474437.716:  -1130  63   8  947
1477474437.716:  -1160  63   8  947
1477474437.717:  -1250  63   8  947
1477474437.717:  -1356  63   8  947
1477474437.717:  -1438  63   8  947
1477474437.720:  -1487  63   8  947
1477474437.720:  -1521  63   8  947
1477474437.725:  -1560  63   8  947
1477474437.725:  -1602  63   8  947
1477474437.728:  -1628  63   8  947
1477474437.732:  -1637  63   8  947
1477474437.739:  -1654  63   8  947
1477474437.740:  -1700  63   8  947
1477474437.741:  -1766  63   8  947
1477474437.741:  -1822  63   8  947
1477474437.742:  -1843  63   8  947
1477474437.743:  -1837  63   8  947
1477474437.743:  -1830  63   8  947
1477474437.745:  -1832  63   8  947
1477474437.748:  -1830  63   8  947
1477474437.748:  -1817  63   8  947
1477474437.759:  -1810  63   8  947
1477474437.759:  -1833  63   8  947
1477474437.760:  -1885  63   8  947
1477474437.761:  -1933  63   8  947
1477474437.761:  -1947  63   8  947
1477474437.762:  -1930  63   8  947
1477474437.763:  -1910  63   8  947
1477474437.767:  -1910  63   8  947
1477474437.767:  -1926  63   8  947
1477474437.769:  -1951  63   8  947
1477474437.769:  -1989  63   8  947
1477474437.772:  -2053  63   8  947
1477474437.783:  -2135  63   8  947
1477474437.784:  -2205  63   8  947
1477474437.784:  -2233  63   8  947
1477474437.785:  -2212  63   8  947
1477474437.785:  -2161  63   8  947
1477474437.786:  -2096  63   8  947
1477474437.787:  -2020  63   8  947
1477474437.788:  -1936  63   8  947
1477474437.790:  -1860  63   8  947
1477474437.794:  -1817  63   8  947
1477474437.803:  -1818  63   8  947
1477474437.803:  -1853  63   8  947
1477474437.804:  -1898  63   8  947
1477474437.805:  -1926  63   8  947
1477474437.805:  -1920  63   8  947
1477474437.806:  -1891  63   8  947
1477474437.811:  -1865  63   8  947
1477474437.811:  -1870  63   8  947
1477474437.822:  -1901  63   8  947
1477474437.822:  -1932  63   8  947
1477474437.823:  -1939  63   8  947
1477474437.824:  -1930  63   8  947
1477474437.825:  -1934  63   8  947
1477474437.825:  -1963  63   8  947
1477474437.826:  -1989  63   8  947
1477474437.827:  -1984  63   8  947
1477474437.827:  -1963  63   8  947
1477474437.828:  -1969  63   8  947
1477474437.841:  -2032  63   8  947
1477474437.841:  -2126  63   8  947
1477474437.841:  -2195  63   8  947
1477474437.842:  -2217  63   8  947
1477474437.842:  -2217  63   8  947
1477474437.842:  -2215  63   8  947
1477474437.842:  -2189  63   8  947
1477474437.843:  -2093  63   8  947
1477474437.845:  -1931  63   8  947
1477474437.850:  -1766  63   8  947
1477474437.850:  -1671  63   8  947
1477474437.853:  -1669  63   8  947
1477474437.854:  -1725  63   8  947
1477474437.856:  -1787  63   8  947
1477474437.857:  -1830  63   8  947
1477474437.863:  -1844  63   8  947
1477474437.864:  -1821  63   8  947
1477474437.864:  -1762  63   8  947
1477474437.864:  -1689  63   8  947
1477474437.868:  -1626  63   8  947
1477474437.869:  -1576  63   8  947
1477474437.870:  -1526  63   8  947
1477474437.877:  -1472  63   8  947
1477474437.877:  -1427  63   8  947
1477474437.887:  -1405  63   8  947
1477474437.890:  -1393  63   8  947
1477474437.892:  -1364  63   8  947
1477474437.893:  -1311  63   8  947
1477474437.893:  -1256  63   8  947
1477474437.894:  -1213  63   8  947
1477474437.895:  -1174  63   8  947
1477474437.895:  -1126  63   8  947
1477474437.905:  -1084  63   8  947
1477474437.906:  -1074  63   8  947
1477474437.907:  -1096  63   8  947
1477474437.908:  -1112  63   8  947
1477474437.909:  -1079  63   8  947
1477474437.911:   -997  63   8  947
1477474437.911:   -910  63   8  947
1477474437.912:   -857  63   8  947
1477474437.913:   -848  63   8  947
1477474437.914:   -877  63   8  947
1477474437.915:   -946  63   8  947
1477474437.915:  -1055  63   8  947
1477474437.916:  -1174  63   8  947
1477474437.917:  -1251  63   8  947
1477474437.922:  -1259  63   8  947
1477474437.923:  -1226  63   8  947
1477474437.936:  -1209  63   8  947
1477474437.936:  -1223  63   8  947
1477474437.937:  -1238  63   8  947
1477474437.937:  -1219  63   8  947
1477474437.937:  -1181  63   8  947
1477474437.937:  -1169  63   8  947
1477474437.937:  -1198  63   8  947
1477474437.944:  -1227  63   8  947
1477474437.944:  -1205  63   8  947
1477474437.944:  -1127  63   8  947
1477474437.944:  -1030  63   8  947
1477474437.946:   -956  63   8  947
1477474437.947:   -919  63   8  947
1477474437.948:   -916  63   8  947
1477474437.959:   -953  63   8  947
1477474437.959:  -1031  63   8  947
1477474437.959:  -1125  63   8  947
1477474437.959:  -1202  63   8  947
1477474437.959:  -1241  63   8  947
1477474437.962:  -1243  63   8  947
1477474437.963:  -1224  63   8  947
1477474437.964:  -1191  63   8  947
1477474437.967:  -1150  63   8  947
1477474437.968:  -1113  63   8  947
1477474437.971:  -1097  63   8  947
1477474437.972:  -1100  63   8  947
1477474437.977:  -1104  63   8  947
1477474437.977:  -1099  63   8  947
1477474437.979:  -1088  63   8  947
1477474437.981:  -1071  63   8  947
1477474437.986:  -1036  63   8  947
1477474437.986:   -966  63   8  947
1477474437.986:   -871  63   8  947
1477474437.988:   -785  63   8  947
1477474437.989:   -743  63   8  947
1477474437.994:   -751  63   8  947
1477474438.010:   -785  63   8  947
1477474438.011:   -812  63   8  947
1477474438.012:   -809  63   8  947
1477474438.012:   -772  63   8  947
1477474438.012:   -722  63   8  947
1477474438.013:   -696  63   8  947
1477474438.013:   -718  63   8  947
1477474438.013:   -775  63   8  947
1477474438.013:   -829  63   8  947
1477474438.014:   -858  63   8  947
1477474438.014:   -876  63   8  947
1477474438.017:   -902  63   8  947
1477474438.033:   -927  63   8  947
1477474438.034:   -914  63   8  947
1477474438.034:   -845  63   8  947
1477474438.035:   -756  63   8  947
1477474438.035:   -699  63   8  947
1477474438.036:   -693  63   8  947
1477474438.037:   -720  63   8  947
1477474438.038:   -762  63   8  947
1477474438.039:   -821  63   8  947
1477474438.040:   -902  63   8  947
1477474438.041:   -980  63   8  947
1477474438.041:  -1011  63   8  947
1477474438.042:   -977  63   8  947
1477474438.043:   -901  63   8  947
1477474438.047:   -818  63   8  947
1477474438.047:   -744  63   8  947
1477474438.057:   -678  63   8  947
1477474438.057:   -625  63   8  947
1477474438.057:   -599  63   8  947
1477474438.057:   -600  63   8  947
1477474438.057:   -606  63   8  947
1477474438.058:   -591  63   8  947
1477474438.060:   -547  63   8  947
1477474438.063:   -484  63   8  947
1477474438.068:   -413  63   8  947
1477474438.068:   -347  63   8  947
1477474438.081:   -306  63   8  947
1477474438.081:   -304  63   8  947
1477474438.081:   -329  63   8  947
1477474438.082:   -340  63   8  947
1477474438.082:   -315  63   8  947
1477474438.082:   -271  63   8  947
1477474438.082:   -240  63   8  947
1477474438.083:   -218  63   8  947
1477474438.085:   -171  63   8  947
1477474438.086:    -91  63   8  947
1477474438.088:    -44  63   8  947
1477474438.091:   -122  63   8  947
1477474438.095:   -340  63   8  947
1477474438.097:   -583  63   8  947
1477474438.099:   -709  63   8  947
1477474438.100:   -678  63   8  947
1477474438.135:   -592  63   8  947
1477474438.135:   -557  63   8  947
1477474438.137:   -558  63   8  947
1477474438.137:   -467  63   8  947
1477474438.138:   -197  63   8  947
1477474438.138:    203  63   8  947
1477474438.138:    621  63   8  947
1477474438.139:   1015  63   8  947
1477474438.139:   1437  63   8  947
1477474438.140:   1932  63   8  947
1477474438.140:   2474  63   8  947
1477474438.140:   3006  63   8  947
1477474438.140:   3528  63   8  947
1477474438.141:   4073  63   8  947
1477474438.141:   4616  63   8  947
1477474438.141:   5078  63   8  946
1477474438.142:   5438  63   8  946
1477474438.142:   5817  63   8  946
1477474438.142:   6372  63   8  946
1477474438.142:   7119  63   8  946
1477474438.143:   7930  63   8  946
1477474438.143:   8690  63   8  946
1477474438.143:   9396  63   8  946
1477474438.145:  10072  63   8  946
1477474438.158:  10621  63   8  946
1477474438.159:  10854  63   8  946
1477474438.159:  10663  63   8  946
1477474438.159:  10128  63   8  946
1477474438.159:   9401  63   8  946
1477474438.159:   8545  63   8  946
1477474438.159:   7539  63   8  946
1477474438.163:   6414  63   8  946
1477474438.163:   5326  63   8  946
1477474438.165:   4430  63   8  946
1477474438.168:   3743  63   8  946
1477474438.169:   3167  63   8  946
1477474438.175:   2624  63   8  946
1477474438.175:   2135  63   8  946
1477474438.181:   1746  63   8  946
1477474438.181:   1422  63   8  946
1477474438.181:   1057  63   8  946
1477474438.181:    581  63   8  946
1477474438.182:     28  63   8  946
1477474438.185:   -509  63   8  946
1477474438.186:   -972  63   8  946
1477474438.191:  -1384  63   8  946
1477474438.212:  -1794  63   8  946
1477474438.212:  -2208  63   8  946
1477474438.212:  -2568  63   8  946
1477474438.212:  -2819  63   8  946
1477474438.212:  -2965  63   8  946
1477474438.213:  -3071  63   8  946
1477474438.213:  -3196  63   8  946
1477474438.213:  -3340  63   8  946
1477474438.213:  -3463  63   8  946
1477474438.214:  -3547  63   8  946
1477474438.214:  -3629  63   8  946
1477474438.214:  -3748  63   8  946
1477474438.215:  -3885  63   8  946
1477474438.218:  -3969  63   8  946
1477474438.219:  -3960  63   8  946
1477474438.220:  -3881  63   8  946
1477474438.221:  -3788  63   8  946
1477474438.222:  -3708  63   8  946
1477474438.234:  -3631  63   8  946
1477474438.234:  -3550  63   8  946
1477474438.234:  -3486  63   8  946
1477474438.234:  -3455  63   8  946
1477474438.234:  -3442  63   8  946
1477474438.235:  -3421  63   8  946
1477474438.236:  -3389  63   8  946
1477474438.240:  -3368  63   8  946
1477474438.242:  -3361  63   8  946
1477474438.244:  -3336  63   8  946
1477474438.245:  -3265  63   8  946
1477474438.247:  -3173  63   8  946
1477474438.251:  -3123  63   8  946
1477474438.251:  -3149  63   8  946
1477474438.254:  -3213  63   8  946
1477474438.254:  -3237  63   8  946
1477474438.265:  -3189  63   8  946
1477474438.266:  -3095  63   8  946
1477474438.267:  -3008  63   8  946
1477474438.267:  -2949  63   8  946
1477474438.268:  -2906  63   8  946
1477474438.268:  -2864  63   8  946
1477474438.269:  -2826  63   8  946
1477474438.270:  -2806  63   8  946
1477474438.275:  -2797  63   8  946
1477474438.275:  -2782  63   8  946
1477474438.284:  -2747  63   8  946
1477474438.285:  -2694  63   8  946
1477474438.285:  -2630  63   8  946
1477474438.285:  -2550  63   8  946
1477474438.287:  -2452  63   8  946
1477474438.287:  -2358  63   8  946
1477474438.288:  -2305  63   8  946
1477474438.297:  -2316  63   8  946
1477474438.297:  -2378  63   8  946
1477474438.297:  -2452  63   8  946
1477474438.297:  -2507  63   8  946
1477474438.300:  -2535  63   8  946
1477474438.301:  -2534  63   8  946
1477474438.301:  -2497  63   8  946
1477474438.306:  -2426  63   8  946
1477474438.307:  -2344  63   8  946
1477474438.316:  -2286  63   8  946
1477474438.317:  -2272  63   8  946
1477474438.317:  -2293  63   8  946
1477474438.318:  -2322  63   8  946
1477474438.318:  -2344  63   8  946
1477474438.320:  -2359  63   8  946
1477474438.321:  -2362  63   8  946
1477474438.323:  -2344  63   8  946
1477474438.324:  -2301  63   8  946
1477474438.325:  -2246  63   8  946
1477474438.337:  -2206  63   8  946
1477474438.337:  -2199  63   8  946
1477474438.338:  -2228  63   8  946
1477474438.338:  -2272  63   8  946
1477474438.338:  -2308  63   8  946
1477474438.338:  -2318  63   8  946
1477474438.339:  -2304  63   8  946
1477474438.340:  -2278  63   8  946
1477474438.346:  -2255  63   8  946
1477474438.346:  -2238  63   8  946
1477474438.348:  -2220  63   8  946
1477474438.349:  -2198  63   8  946
1477474438.350:  -2186  63   8  946
1477474438.354:  -2192  63   8  946
1477474438.356:  -2213  63   8  946
1477474438.357:  -2237  63   8  946
1477474438.361:  -2248  63   8  946
1477474438.361:  -2245  63   8  946
1477474438.364:  -2235  63   8  946
1477474438.365:  -2224  63   8  946
1477474438.367:  -2219  63   8  946
1477474438.369:  -2230  63   8  946
1477474438.383:  -2267  63   8  946
1477474438.384:  -2328  63   8  946
1477474438.384:  -2387  63   8  946
1477474438.384:  -2420  63   8  946
1477474438.385:  -2414  63   8  946
1477474438.385:  -2385  63   8  946
1477474438.385:  -2354  63   8  946
1477474438.385:  -2333  63   8  946
1477474438.389:  -2324  63   8  946
1477474438.390:  -2329  63   8  946
1477474438.390:  -2363  63   8  946
1477474438.391:  -2434  63   8  946
1477474438.394:  -2517  63   8  946
1477474438.395:  -2562  63   8  946
1477474438.412:  -2527  63   8  946
1477474438.412:  -2422  63   8  946
1477474438.413:  -2299  63   8  946
1477474438.413:  -2216  63   8  946
1477474438.413:  -2186  63   8  946
1477474438.413:  -2181  63   8  946
1477474438.413:  -2180  63   8  946
1477474438.414:  -2187  63   8  946
1477474438.414:  -2221  63   8  946
1477474438.415:  -2277  63   8  946
1477474438.419:  -2322  63   8  946
1477474438.420:  -2326  63   8  946
1477474438.423:  -2292  63   8  946
1477474438.424:  -2248  63   8  946
1477474438.436:  -2221  63   8  946
1477474438.436:  -2216  63   8  946
1477474438.436:  -2233  63   8  946
1477474438.436:  -2280  63   8  946
1477474438.437:  -2359  63   8  946
1477474438.437:  -2453  63   8  946
1477474438.437:  -2520  63   8  946
1477474438.439:  -2521  63   8  946
1477474438.444:  -2452  63   8  946
1477474438.512:  -2346  63   8  946
1477474438.513:  -2249  63   8  946
1477474438.513:  -2182  63   8  946
1477474438.513:  -2145  63   8  946
1477474438.513:  -2133  63   8  946
1477474438.513:  -2140  63   8  946
1477474438.513:  -2160  63   8  946
1477474438.514:  -2179  63   8  946
1477474438.514:  -2178  63   8  946
1477474438.514:  -2152  63   8  946
1477474438.514:  -2109  63   8  946
1477474438.514:  -2066  63   8  946
1477474438.514:  -2030  63   8  946
1477474438.514:  -2003  63   8  946
1477474438.515:  -1988  63   8  946
1477474438.515:  -1989  63   8  946
1477474438.515:  -2001  63   8  946
1477474438.515:  -2016  63   8  946
1477474438.515:  -2019  63   8  946
1477474438.515:  -1993  63   8  946
1477474438.515:  -1931  63   8  946
1477474438.516:  -1846  63   8  946
1477474438.516:  -1767  63   8  946
1477474438.516:  -1722  63   8  946
1477474438.517:  -1713  63   8  946
1477474438.517:  -1715  63   8  946
1477474438.517:  -1701  63   8  946
1477474438.517:  -1673  63   8  946
1477474438.517:  -1652  63   8  946
1477474438.517:  -1637  63   8  946
1477474438.517:  -1600  63   8  946
1477474438.518:  -1528  63   8  946
1477474438.518:  -1445  63   8  946
1477474438.518:  -1398  63   8  946
1477474438.518:  -1409  63   8  946
1477474438.518:  -1456  63   8  946
1477474438.518:  -1499  63   8  946
1477474438.519:  -1523  63   8  946
1477474438.519:  -1540  63   8  946
1477474438.520:  -1553  63   8  946
1477474438.521:  -1543  63   8  946
1477474438.524:  -1492  63   8  946
1477474438.525:  -1404  63   8  946
1477474438.539:  -1312  63   8  946
1477474438.540:  -1253  63   8  946
1477474438.540:  -1236  63   8  946
1477474438.540:  -1235  63   8  946
1477474438.540:  -1207  63   8  946
1477474438.540:  -1131  63   8  946
1477474438.540:  -1024  63   8  946
1477474438.544:   -935  63   8  946
1477474438.544:   -895  63   8  946
1477474438.545:   -886  63   8  946
1477474438.547:   -871  63   8  946
1477474438.550:   -838  63   8  946
1477474438.552:   -818  63   8  946
1477474438.555:   -841  63   8  946
1477474438.567:   -900  63   8  946
1477474438.567:   -955  63   8  946
1477474438.568:   -979  63   8  946
1477474438.568:   -970  63   8  946
1477474438.568:   -934  63   8  946
1477474438.568:   -869  63   8  946
1477474438.571:   -788  63   8  946
1477474438.575:   -727  63   8  946
1477474438.576:   -716  63   8  946
1477474438.578:   -737  63   8  946
1477474438.578:   -737  63   8  946
1477474438.581:   -680  63   8  946
1477474438.595:   -591  63   8  946
1477474438.595:   -513  63   8  946
1477474438.595:   -460  63   8  946
1477474438.598:   -407  63   8  946
1477474438.598:   -337  63   8  946
1477474438.598:   -269  63   8  946
1477474438.599:   -237  63   8  946
1477474438.599:   -247  63   8  946
1477474438.599:   -266  63   8  946
1477474438.599:   -266  63   8  946
1477474438.600:   -237  63   8  946
1477474438.603:   -185  63   8  946
1477474438.604:   -111  63   8  946
1477474438.608:    -18  63   8  946
1477474438.619:     76  63   8  946
1477474438.619:    139  63   8  946
1477474438.620:    154  63   8  946
1477474438.621:    140  63   8  946
1477474438.623:    133  63   8  946
1477474438.623:    145  63   8  946
1477474438.623:    164  63   8  946
1477474438.624:    174  63   8  946
1477474438.624:    185  63   8  946
1477474438.625:    223  63   8  946
1477474438.627:    296  63   8  946
1477474438.628:    375  63   8  946
1477474438.633:    414  63   8  946
1477474438.636:    396  63   8  946
1477474438.636:    339  63   8  946
1477474438.636:    273  63   8  946
1477474438.644:    212  63   8  946
1477474438.647:    160  63   8  946
1477474438.652:    127  63   8  946
1477474438.653:    119  63   8  946
1477474438.653:    130  63   8  946
1477474438.653:    133  63   8  946
1477474438.653:    108  63   8  946
1477474438.654:     66  63   8  946
1477474438.656:     42  63   8  946
1477474438.656:     54  63   8  946
1477474438.658:     91  63   8  946
1477474438.662:    131  63   8  946
1477474438.676:    172  63   8  946
1477474438.676:    223  63   8  946
1477474438.676:    274  63   8  946
1477474438.677:    297  63   8  946
1477474438.677:    266  63   8  946
1477474438.677:    182  63   8  946
1477474438.677:     73  63   8  946
1477474438.677:    -30  63   8  946
1477474438.678:   -113  63   8  946
1477474438.679:   -168  63   8  946
1477474438.681:   -190  63   8  946
1477474438.683:   -188  63   8  946
1477474438.684:   -182  63   8  946
1477474438.690:   -196  63   8  946
1477474438.703:   -241  63   8  946
1477474438.703:   -314  63   8  946
1477474438.703:   -399  63   8  946
1477474438.703:   -479  63   8  946
1477474438.703:   -547  63   8  946
1477474438.703:   -604  63   8  946
1477474438.703:   -647  63   8  946
1477474438.704:   -671  63   8  946
1477474438.707:   -673  63   8  946
1477474438.707:   -662  63   8  946
1477474438.707:   -673  63   8  946
1477474438.711:   -738  63   8  946
1477474438.713:   -855  63   8  946
1477474438.717:   -978  63   8  946
1477474438.718:  -1056  63   8  946
1477474438.719:  -1082  63   8  946
1477474438.720:  -1093  63   8  946
1477474438.721:  -1123  63   8  946
1477474438.727:  -1159  63   8  946
1477474438.727:  -1169  63   8  946
1477474438.740:  -1155  63   8  946
1477474438.740:  -1167  63   8  946
1477474438.740:  -1244  63   8  946
1477474438.741:  -1363  63   8  946
1477474438.741:  -1459  63   8  946
1477474438.741:  -1485  63   8  946
1477474438.741:  -1466  63   8  946
1477474438.745:  -1451  63   8  946
1477474438.746:  -1466  63   8  946
1477474438.748:  -1493  63   8  946
1477474438.749:  -1515  63   8  946
1477474438.749:  -1543  63   8  946
1477474438.751:  -1607  63   8  946
1477474438.754:  -1706  63   8  946
1477474438.758:  -1805  63   8  946
1477474438.759:  -1862  63   8  946
1477474438.770:  -1873  63   8  946
1477474438.770:  -1868  63   8  946
1477474438.770:  -1883  63   8  946
1477474438.770:  -1926  63   8  946
1477474438.771:  -1982  63   8  946
1477474438.772:  -2034  63   8  946
1477474438.772:  -2084  63   8  946
1477474438.774:  -2143  63   8  946
1477474438.775:  -2216  63   8  946
1477474438.776:  -2281  63   8  946
1477474438.779:  -2300  63   8  946
1477474438.781:  -2251  63   8  946
1477474438.786:  -2151  63   8  946
1477474438.786:  -2046  63   8  946
1477474438.789:  -1982  63   8  946
1477474438.797:  -1977  63   8  946
1477474438.803:  -2020  63   8  946
1477474438.803:  -2086  63   8  946
1477474438.804:  -2156  63   8  946
1477474438.804:  -2216  63   8  946
1477474438.805:  -2246  63   8  946
1477474438.805:  -2229  63   8  946
1477474438.805:  -2171  63   8  946
1477474438.809:  -2098  63   8  946
1477474438.810:  -2039  63   8  946
1477474438.811:  -2009  63   8  946
1477474438.814:  -2002  63   8  946
1477474438.815:  -2008  63   8  946
1477474438.815:  -2026  63   8  946
1477474438.816:  -2063  63   8  946
1477474438.818:  -2106  63   8  946
1477474438.820:  -2128  63   8  946
1477474438.834:  -2112  63   8  946
1477474438.834:  -2068  63   8  946
1477474438.834:  -2022  63   8  946
1477474438.834:  -2001  63   8  946
1477474438.834:  -2011  63   8  946
1477474438.835:  -2035  63   8  946
1477474438.835:  -2049  63   8  946
1477474438.838:  -2045  63   8  946
1477474438.840:  -2030  63   8  946
1477474438.841:  -2016  63   8  946
1477474438.843:  -2000  63   8  946
1477474438.845:  -1963  63   8  946
1477474438.856:  -1896  63   8  946
1477474438.857:  -1818  63   8  946
1477474438.857:  -1769  63   8  946
1477474438.857:  -1779  63   8  946
1477474438.857:  -1836  63   8  946
1477474438.857:  -1904  63   8  946
1477474438.858:  -1953  63   8  946
1477474438.860:  -1972  63   8  946
1477474438.861:  -1969  63   8  946
1477474438.866:  -1956  63   8  946
1477474438.868:  -1955  63   8  946
1477474438.869:  -1987  63   8  946
1477474438.872:  -2060  63   8  946
1477474438.872:  -2153  63   8  946
1477474438.881:  -2228  63   8  946
1477474438.899:  -2266  63   8  946
1477474438.900:  -2286  63   8  946
1477474438.902:  -2314  63   8  946
1477474438.905:  -2347  63   8  946
1477474438.906:  -2362  63   8  946
1477474438.906:  -2347  63   8  946
1477474438.907:  -2314  63   8  946
1477474438.909:  -2295  63   8  946
1477474438.909:  -2315  63   8  946
1477474438.909:  -2368  63   8  946
1477474438.909:  -2429  63   8  946
1477474438.910:  -2475  63   8  946
1477474438.910:  -2495  63   8  946
1477474438.911:  -2500  63   8  946
1477474438.911:  -2504  63   8  946
1477474438.911:  -2507  63   8  946
1477474438.911:  -2501  63   8  946
1477474438.912:  -2489  63   8  946
1477474438.912:  -2496  63   8  946
1477474438.915:  -2537  63   8  946
1477474438.915:  -2584  63   8  946
1477474438.917:  -2586  63   8  946
1477474438.920:  -2515  63   8  946
1477474438.938:  -2407  63   8  946
1477474438.938:  -2319  63   8  946
1477474438.938:  -2268  63   8  946
1477474438.938:  -2226  63   8  946
1477474438.938:  -2172  63   8  946
1477474438.938:  -2139  63   8  946
1477474438.939:  -2172  63   8  946
1477474438.939:  -2263  63   8  946
1477474438.939:  -2343  63   8  946
1477474438.939:  -2360  63   8  946
1477474438.943:  -2324  63   8  946
1477474438.944:  -2287  63   8  946
1477474438.944:  -2271  63   8  946
1477474438.945:  -2254  63   8  946
1477474438.948:  -2220  63   8  946
1477474438.950:  -2199  63   8  946
1477474438.960:  -2233  63   8  946
1477474438.961:  -2315  63   8  946
1477474438.961:  -2387  63   8  946
1477474438.961:  -2404  63   8  946
1477474438.961:  -2375  63   8  946
1477474438.964:  -2339  63   8  946
1477474438.964:  -2312  63   8  946
1477474438.965:  -2275  63   8  946
1477474438.969:  -2212  63   8  946
1477474438.970:  -2147  63   8  946
1477474438.971:  -2126  63   8  946
1477474438.973:  -2166  63   8  946
1477474438.975:  -2232  63   8  946
1477474438.978:  -2275  63   8  946
1477474438.982:  -2272  63   8  946
1477474438.983:  -2244  63   8  946
1477474438.983:  -2227  63   8  946
1477474438.988:  -2232  63   8  946
1477474438.988:  -2244  63   8  946
1477474438.993:  -2248  63   8  946
1477474439.011:  -2248  63   8  946
1477474439.011:  -2259  63   8  946
1477474439.011:  -2280  63   8  946
1477474439.011:  -2291  63   8  946
1477474439.011:  -2271  63   8  946
1477474439.012:  -2213  63   8  946
1477474439.012:  -2130  63   8  946
1477474439.012:  -2054  63   8  946
1477474439.012:  -2008  63   8  946
1477474439.013:  -2004  63   8  946
1477474439.013:  -2034  63   8  946
1477474439.016:  -2076  63   8  946
1477474439.017:  -2125  63   8  946
1477474439.018:  -2205  63   8  946
1477474439.019:  -2340  63   8  946
1477474439.021:  -2492  63   8  946
1477474439.025:  -2568  63   8  946
1477474439.027:  -2500  63   8  946
1477474439.036:  -2323  63   8  946
1477474439.037:  -2161  63   8  946
1477474439.037:  -2087  63   8  946
1477474439.037:  -2029  63   8  946
1477474439.037:  -1841  63   8  946
1477474439.038:  -1462  63   8  946
1477474439.038:   -968  63   8  946
1477474439.040:   -482  63   8  946
1477474439.042:    -46  63   8  946
1477474439.044:    376  63   8  946
1477474439.047:    825  63   8  946
1477474439.048:   1279  63   8  946
1477474439.050:   1704  63   8  946
1477474439.051:   2101  63   8  946
1477474439.057:   2489  63   8  946
1477474439.057:   2872  64   8  933
1477474439.059:   3261  64   8  933
1477474439.060:   3715  64   8  933
1477474439.061:   4311  64   8  933
1477474439.064:   5063  64   8  933
1477474439.078:   5888  64   8  933
1477474439.078:   6672  64   8  933
1477474439.078:   7361  64   8  933
1477474439.078:   7945  64   8  933
1477474439.079:   8390  64   8  933
1477474439.079:   8611  64   8  933
1477474439.079:   8535  64   8  933
1477474439.081:   8163  64   8  933
1477474439.084:   7555  64   8  933
1477474439.084:   6758  64   8  933
1477474439.086:   5799  64   8  933
1477474439.087:   4725  64   8  933
1477474439.092:   3631  64   8  933
1477474439.093:   2613  64   8  933
1477474439.100:   1716  64   8  933
1477474439.100:    947  64   8  933
1477474439.100:    333  64   8  933
1477474439.101:    -86  64   8  933
1477474439.101:   -319  64   8  933
1477474439.106:   -464  64   8  933
1477474439.107:   -648  64   8  933
1477474439.108:   -931  64   8  933
1477474439.109:  -1275  64   8  933
1477474439.112:  -1609  64   8  933
1477474439.114:  -1913  64   8  933
1477474439.150:  -2221  64   8  933
1477474439.151:  -2562  64   8  933
1477474439.151:  -2895  64   8  933
1477474439.151:  -3133  64   8  933
1477474439.151:  -3237  64   8  933
1477474439.151:  -3260  64   8  933
1477474439.152:  -3297  64   8  933
1477474439.152:  -3382  64   8  933
1477474439.152:  -3472  64   8  933
1477474439.164:  -3510  64   8  933
1477474439.164:  -3491  64   8  933
1477474439.164:  -3456  64   8  933
1477474439.164:  -3422  64   8  933
1477474439.165:  -3357  64   8  933
1477474439.165:  -3231  64   8  933
1477474439.165:  -3071  64   8  933
1477474439.166:  -2940  64   8  933
1477474439.166:  -2867  64   8  933
1477474439.166:  -2832  64   8  933
1477474439.167:  -2814  64   8  933
1477474439.167:  -2824  64   8  933
1477474439.167:  -2879  64   8  933
1477474439.168:  -2947  64   8  933
1477474439.168:  -2961  64   8  933
1477474439.169:  -2880  64   8  933
1477474439.169:  -2744  64   8  933
1477474439.170:  -2623  64   8  933
1477474439.172:  -2549  64   8  933
1477474439.173:  -2498  64   8  933
1477474439.175:  -2435  64   8  933
1477474439.178:  -2355  64   8  933
1477474439.178:  -2279  64   8  933
1477474439.178:  -2218  64   8  933
1477474439.192:  -2164  64   8  933
1477474439.192:  -2100  64   8  933
1477474439.193:  -2028  64   8  933
1477474439.193:  -1959  64   8  933
1477474439.193:  -1914  64   8  933
1477474439.193:  -1905  64   8  933
1477474439.194:  -1939  64   8  933
1477474439.194:  -2000  64   8  933
1477474439.198:  -2057  64   8  933
1477474439.199:  -2087  64   8  933
1477474439.200:  -2092  64   8  933
1477474439.202:  -2094  64   8  933
1477474439.213:  -2105  64   8  933
1477474439.213:  -2111  64   8  933
1477474439.213:  -2096  64   8  933
1477474439.213:  -2072  64   8  933
1477474439.213:  -2078  64   8  933
1477474439.216:  -2135  64   8  933
1477474439.216:  -2216  64   8  933
1477474439.218:  -2266  64   8  933
1477474439.219:  -2255  64   8  933
1477474439.220:  -2203  64   8  933
1477474439.226:  -2148  64   8  933
1477474439.226:  -2095  64   8  933
1477474439.230:  -2023  64   8  933
1477474439.230:  -1932  64   8  933
1477474439.234:  -1860  64   8  933
1477474439.235:  -1844  64   8  933
1477474439.235:  -1865  64   8  933
1477474439.237:  -1869  64   8  933
1477474439.239:  -1826  64   8  933
1477474439.245:  -1764  64   8  933
1477474439.245:  -1728  64   8  933
1477474439.245:  -1729  64   8  933
1477474439.248:  -1740  64   8  933
1477474439.249:  -1740  64   8  933
1477474439.275:  -1740  64   8  933
1477474439.275:  -1754  64   8  933
1477474439.275:  -1776  64   8  933
1477474439.276:  -1780  64   8  933
1477474439.276:  -1751  64   8  933
1477474439.277:  -1695  64   8  933
1477474439.277:  -1622  64   8  933
1477474439.277:  -1547  64   8  933
1477474439.278:  -1491  64   8  933
1477474439.278:  -1479  64   8  933
1477474439.279:  -1531  64   8  933
1477474439.279:  -1639  64   8  933
1477474439.279:  -1776  64   8  933
1477474439.281:  -1917  64   8  933
1477474439.281:  -2046  64   8  933
1477474439.282:  -2148  64   8  933
1477474439.285:  -2214  64   8  933
1477474439.285:  -2245  64   8  933
1477474439.302:  -2259  64   8  933
1477474439.302:  -2273  64   8  933
1477474439.302:  -2288  64   8  933
1477474439.303:  -2302  64   8  933
1477474439.303:  -2312  64   8  933
1477474439.303:  -2323  64   8  933
1477474439.303:  -2329  64   8  933
1477474439.304:  -2306  64   8  933
1477474439.304:  -2233  64   8  933
1477474439.305:  -2114  64   8  933
1477474439.305:  -1981  64   8  933
1477474439.308:  -1876  64   8  933
1477474439.309:  -1821  64   8  933
1477474439.311:  -1812  64   8  933
1477474439.317:  -1824  64   8  933
1477474439.317:  -1833  64   8  933
1477474439.317:  -1828  64   8  933
1477474439.319:  -1816  64   8  933
1477474439.321:  -1802  64   8  933
1477474439.325:  -1774  64   8  933
1477474439.326:  -1711  64   8  933
1477474439.327:  -1609  64   8  933
1477474439.340:  -1495  64   8  933
1477474439.340:  -1416  64   8  933
1477474439.340:  -1390  64   8  933
1477474439.341:  -1392  64   8  933
1477474439.341:  -1374  64   8  933
1477474439.341:  -1316  64   8  933
1477474439.342:  -1243  64   8  933
1477474439.342:  -1190  64   8  933
1477474439.344:  -1160  64   8  933
1477474439.346:  -1124  64   8  933
1477474439.349:  -1063  64   8  933
1477474439.353:  -1004  64   8  933
1477474439.362:   -984  64   8  933
1477474439.443:   -998  64   8  933
1477474439.456:   -989  64   8  933
1477474439.456:   -914  64   8  933
1477474439.457:   -789  64   8  933
1477474439.457:   -672  64   8  933
1477474439.457:   -601  64   8  933
1477474439.457:   -567  64   8  933
1477474439.457:   -548  64   8  933
1477474439.457:   -549  64   8  933
1477474439.457:   -590  64   8  933
1477474439.458:   -664  64   8  933
1477474439.458:   -734  64   8  933
1477474439.458:   -770  64   8  933
1477474439.458:   -772  64   8  933
1477474439.458:   -746  64   8  933
1477474439.458:   -686  64   8  933
1477474439.459:   -587  64   8  933
1477474439.459:   -482  64   8  933
1477474439.460:   -423  64   8  933
1477474439.460:   -431  64   8  933
1477474439.460:   -463  64   8  933
1477474439.460:   -464  64   8  933
1477474439.460:   -420  64   8  933
1477474439.461:   -366  64   8  933
1477474439.461:   -325  64   8  933
1477474439.461:   -286  64   8  933
1477474439.461:   -231  64   8  933
1477474439.461:   -172  64   8  933
1477474439.461:   -148  64   8  933
1477474439.461:   -184  64   8  933
1477474439.462:   -268  64   8  933
1477474439.462:   -364  64   8  933
1477474439.462:   -447  64   8  933
1477474439.462:   -511  64   8  933
1477474439.462:   -561  64   8  933
1477474439.462:   -606  64   8  933
1477474439.464:   -651  64   8  933
1477474439.464:   -693  64   8  933
1477474439.464:   -730  64   8  933
1477474439.465:   -759  64   8  933
1477474439.465:   -787  64   8  933
1477474439.465:   -808  64   8  933
1477474439.465:   -808  64   8  933
1477474439.465:   -769  64   8  933
1477474439.467:   -690  64   8  933
1477474439.467:   -590  64   8  933
1477474439.467:   -487  64   8  933
1477474439.467:   -393  64   8  933
1477474439.468:   -332  64   8  933
1477474439.468:   -333  64   8  933
1477474439.468:   -403  64   8  933
1477474439.468:   -506  64   8  933
1477474439.469:   -586  64   8  933
1477474439.469:   -612  64   8  933
1477474439.469:   -604  64   8  933
1477474439.480:   -590  64   8  933
1477474439.481:   -572  64   8  933
1477474439.481:   -524  64   8  933
1477474439.481:   -440  64   8  933
1477474439.481:   -357  64   8  933
1477474439.481:   -318  64   8  933
1477474439.481:   -332  64   8  933
1477474439.481:   -360  64   8  933
1477474439.482:   -368  64   8  933
1477474439.482:   -352  64   8  933
1477474439.482:   -345  64   8  933
1477474439.484:   -374  64   8  933
1477474439.485:   -427  64   8  933
1477474439.487:   -465  64   8  933
1477474439.490:   -465  64   8  933
1477474439.491:   -447  64   8  933
1477474439.497:   -446  64   8  933
1477474439.497:   -467  64   8  933
1477474439.506:   -469  64   8  933
1477474439.506:   -413  64   8  933
1477474439.516:   -308  64   8  933
1477474439.516:   -215  64   8  933
1477474439.516:   -173  64   8  933
1477474439.516:   -168  64   8  933
1477474439.517:   -160  64   8  933
1477474439.517:   -145  64   8  933
1477474439.517:   -156  64   8  933
1477474439.517:   -212  64   8  933
1477474439.518:   -277  64   8  933
1477474439.519:   -295  64   8  933
1477474439.527:   -243  64   8  933
1477474439.527:   -149  64   8  933
1477474439.538:    -63  64   8  933
1477474439.538:    -15  64   8  933
1477474439.538:    -10  64   8  933
1477474439.538:    -49  64   8  933
1477474439.538:   -125  64   8  933
1477474439.538:   -218  64   8  933
1477474439.539:   -303  64   8  933
1477474439.541:   -373  64   8  933
1477474439.542:   -438  64   8  933
1477474439.545:   -507  64   8  933
1477474439.545:   -570  64   8  933
1477474439.548:   -606  64   8  933
1477474439.557:   -616  64   8  933
1477474439.557:   -629  64   8  933
1477474439.568:   -671  64   8  933
1477474439.568:   -739  64   8  933
1477474439.568:   -813  64   8  933
1477474439.568:   -882  64   8  933
1477474439.568:   -954  64   8  933
1477474439.568:  -1026  64   8  933
1477474439.569:  -1083  64   8  933
1477474439.569:  -1122  64   8  933
1477474439.569:  -1171  64   8  933
1477474439.570:  -1268  64   8  933
1477474439.572:  -1411  64   8  933
1477474439.573:  -1540  64   8  933
1477474439.578:  -1600  64   8  933
1477474439.578:  -1586  64   8  933
1477474439.592:  -1544  64   8  933
1477474439.592:  -1510  64   8  933
1477474439.592:  -1476  64   8  933
1477474439.592:  -1423  64   8  933
1477474439.592:  -1366  64   8  933
1477474439.592:  -1351  64   8  933
1477474439.593:  -1403  64   8  933
1477474439.594:  -1490  64   8  933
1477474439.595:  -1554  64   8  933
1477474439.597:  -1565  64   8  933
1477474439.600:  -1541  64   8  933
1477474439.601:  -1515  64   8  933
1477474439.604:  -1497  64   8  933
1477474439.605:  -1480  64   8  933
1477474439.622:  -1462  64   8  933
1477474439.622:  -1464  64   8  933
1477474439.622:  -1515  64   8  933
1477474439.622:  -1615  64   8  933
1477474439.622:  -1728  64   8  933
1477474439.623:  -1795  64   8  933
1477474439.623:  -1784  64   8  933
1477474439.623:  -1714  64   8  933
1477474439.624:  -1629  64   8  933
1477474439.625:  -1555  64   8  933
1477474439.626:  -1489  64   8  933
1477474439.629:  -1422  64   8  933
1477474439.633:  -1379  64   8  933
1477474439.633:  -1390  64   8  933
1477474439.646:  -1454  64   8  933
1477474439.647:  -1526  64   8  933
1477474439.647:  -1564  64   8  933
1477474439.647:  -1569  64   8  933
1477474439.647:  -1576  64   8  933
1477474439.647:  -1598  64   8  933
1477474439.650:  -1608  64   8  933
1477474439.650:  -1570  64   8  933
1477474439.651:  -1491  64   8  933
1477474439.652:  -1404  64   8  933
1477474439.653:  -1330  64   8  933
1477474439.659:  -1250  64   8  933
1477474439.672:  -1127  64   8  933
1477474439.673:   -955  64   8  933
1477474439.673:   -761  64   8  933
1477474439.673:   -587  64   8  933
1477474439.673:   -458  64   8  933
1477474439.673:   -384  64   8  933
1477474439.673:   -358  64   8  933
1477474439.674:   -360  64   8  933
1477474439.674:   -357  64   8  933
1477474439.676:   -324  64   8  933
1477474439.680:   -263  64   8  933
1477474439.681:   -193  64   8  933
1477474439.682:   -128  64   8  933
1477474439.684:    -62  64   8  933
1477474439.686:     20  64   8  933
1477474439.687:    110  64   8  933
1477474439.699:    171  64   8  933
1477474439.699:    173  64   8  933
1477474439.699:    133  64   8  933
1477474439.699:     99  64   8  933
1477474439.701:    107  64   8  933
1477474439.701:    157  64   8  933
1477474439.702:    221  64   8  933
1477474439.703:    284  64   8  933
1477474439.705:    345  64   8  933
1477474439.711:    396  64   8  933
1477474439.717:    418  64   8  933
1477474439.717:    397  64   8  933
1477474439.717:    354  64   8  933
1477474439.717:    328  64   8  933
1477474439.719:    333  64   8  933
1477474439.720:    353  64   8  933
1477474439.721:    374  64   8  933
1477474439.722:    406  64   8  933
1477474439.728:    464  64   8  933
1477474439.729:    533  64   8  933
1477474439.735:    573  64   8  933
1477474439.735:    561  64   8  933
1477474439.735:    520  64   8  933
1477474439.737:    491  64   8  933
1477474439.737:    487  64   8  933
1477474439.739:    489  64   8  933
1477474439.741:    485  64   8  933
1477474439.742:    488  64   8  933
1477474439.753:    519  64   8  933
1477474439.753:    568  64   8  933
1477474439.753:    597  64   8  933
1477474439.753:    576  64   8  933
1477474439.754:    521  64   8  933
1477474439.755:    484  64   8  933
1477474439.757:    502  64   8  933
1477474439.761:    561  64   8  933
1477474439.773:    617  64   8  933
1477474439.773:    636  64   8  933
1477474439.773:    635  64   8  933
1477474439.773:    651  64   8  933
1477474439.773:    692  64   8  933
1477474439.774:    723  64   8  933
1477474439.774:    711  64   8  933
1477474439.774:    672  64   8  933
1477474439.779:    658  64   8  933
1477474439.779:    700  64   8  933
1477474439.783:    782  64   8  933
1477474439.783:    866  64   8  933
1477474439.785:    939  64   8  933
1477474439.786:   1009  64   8  933
1477474439.789:   1066  64   8  933
1477474439.790:   1076  64   8  933
1477474439.793:   1020  64   8  933
1477474439.798:    932  64   8  933
1477474439.798:    870  64   8  933
1477474439.798:    855  64   8  933
1477474439.800:    872  64   8  933
1477474439.801:    904  64   8  933
1477474439.804:    956  64   8  933
1477474439.806:   1026  64   8  933
1477474439.817:   1080  64   8  933
1477474439.817:   1076  64   8  933
1477474439.817:   1012  64   8  933
1477474439.817:    937  64   8  933
1477474439.818:    892  64   8  933
1477474439.818:    877  64   8  933
1477474439.820:    871  64   8  933
1477474439.826:    876  64   8  933
1477474439.835:    911  64   8  933
1477474439.836:    985  64   8  933
1477474439.836:   1082  64   8  933
1477474439.836:   1171  64   8  933
1477474439.836:   1233  64   8  933
1477474439.837:   1274  64   8  933
1477474439.840:   1303  64   8  933
1477474439.840:   1333  64   8  933
1477474439.840:   1379  64   8  933
1477474439.842:   1446  64   8  933
1477474439.843:   1521  64   8  933
1477474439.846:   1590  64   8  933
1477474439.858:   1646  64   8  933
1477474439.858:   1698  64   8  933
1477474439.858:   1740  64   8  933
1477474439.858:   1752  64   8  933
1477474439.858:   1727  64   8  933
1477474439.859:   1691  64   8  933
1477474439.859:   1689  64   8  933
1477474439.861:   1742  64   8  933
1477474439.865:   1826  64   8  933
1477474439.866:   1901  64   8  933
1477474439.868:   1944  64   8  933
1477474439.869:   1961  64   8  933
1477474439.870:   1962  64   8  933
1477474439.876:   1953  64   8  933
1477474439.882:   1925  64   8  933
1477474439.882:   1872  64   8  933
1477474439.882:   1802  64   8  933
1477474439.882:   1733  64   8  933
1477474439.882:   1683  64   8  933
1477474439.884:   1656  64   8  933
1477474439.886:   1641  64   8  933
1477474439.889:   1626  64   8  933
1477474439.895:   1614  64   8  933
1477474439.895:   1618  64   8  933
1477474439.896:   1641  64   8  933
1477474439.901:   1661  64   8  933
1477474439.901:   1658  64   8  933
1477474439.901:   1645  64   8  933
1477474439.902:   1662  64   8  933
1477474439.907:   1727  64   8  933
1477474439.921:   1810  64   8  933
1477474439.921:   1860  64   8  933
1477474439.921:   1851  64   8  933
1477474439.921:   1801  64   8  933
1477474439.922:   1747  64   8  933
1477474439.922:   1701  64   8  933
1477474439.922:   1659  64   8  933
1477474439.923:   1633  64   8  933
1477474439.923:   1645  64   8  933
1477474439.924:   1697  64   8  933
1477474439.925:   1762  64   8  933
1477474439.927:   1810  64   8  933
1477474439.930:   1835  64   8  933
1477474439.934:   1851  64   8  933
1477474439.944:   1858  64   8  933
1477474439.944:   1838  64   8  933
1477474439.944:   1782  64   8  933
1477474439.944:   1715  64   8  933
1477474439.944:   1672  64   8  933
1477474439.944:   1655  64   8  933
1477474439.948:   1643  64   8  933
1477474439.948:   1626  64   8  933
1477474439.950:   1614  64   8  933
1477474439.951:   1610  64   8  933
1477474439.952:   1588  64   8  933
1477474439.957:   1522  64   8  933
1477474439.968:   1420  64   8  933
1477474439.968:   1325  64   8  933
1477474439.969:   1253  64   8  933
1477474439.969:   1180  64   8  933
1477474439.969:   1098  64   8  933
1477474439.969:   1051  64   8  933
1477474439.969:   1093  64   8  933
1477474439.973:   1201  64   8  933
1477474439.976:   1292  64   8  933
1477474439.976:   1319  64   8  933
1477474439.977:   1350  64   8  933
1477474439.979:   1517  64   8  933
1477474439.981:   1884  64   8  933
1477474439.983:   2406  64   8  934
1477474439.985:   2976  64   8  934
1477474439.989:   3514  64   8  934
1477474439.989:   3998  64   8  934
1477474439.991:   4445  64   8  934
1477474440.003:   4876  64   8  934
1477474440.003:   5314  64   8  934
1477474440.003:   5749  64   8  934
1477474440.003:   6145  64   8  934
1477474440.003:   6480  64   8  934
1477474440.004:   6815  64   8  934
1477474440.007:   7266  64   8  934
1477474440.008:   7900  64   8  934
1477474440.008:   8649  64   8  934
1477474440.010:   9378  64   8  934
1477474440.012:  10007  64   8  934
1477474440.017:  10561  64   8  934
1477474440.017:  11060  64   8  934
1477474440.025:  11418  64   8  934
1477474440.025:  11488  64   8  934
1477474440.025:  11207  64   8  934
1477474440.025:  10639  64   8  934
1477474440.026:   9889  64   8  934
1477474440.027:   8992  64   8  934
1477474440.031:   7921  64   8  934
1477474440.032:   6702  64   8  934
1477474440.036:   5472  64   8  934
1477474440.049:   4392  64   8  934
1477474440.049:   3533  64   8  934
1477474440.049:   2863  64   8  934
1477474440.050:   2328  64   8  934
1477474440.050:   1903  64   8  934
1477474440.050:   1574  64   8  934
1477474440.050:   1292  64   8  934
1477474440.050:    974  64   8  934
1477474440.053:    562  64   8  934
1477474440.053:     77  64   8  934
1477474440.055:   -415  64   8  934
1477474440.057:   -857  64   8  934
1477474440.068:  -1241  64   8  934
1477474440.068:  -1583  64   8  934
1477474440.068:  -1885  64   8  934
1477474440.069:  -2122  64   8  934
1477474440.069:  -2289  64   8  934
1477474440.069:  -2429  64   8  934
1477474440.071:  -2607  64   8  934
1477474440.072:  -2840  64   8  934
1477474440.077:  -3066  64   8  934
1477474440.077:  -3210  64   8  934
1477474440.087:  -3257  64   8  934
1477474440.087:  -3264  64   8  934
1477474440.088:  -3287  64   8  934
1477474440.088:  -3318  64   8  934
1477474440.088:  -3306  64   8  934
1477474440.089:  -3239  64   8  934
1477474440.090:  -3175  64   8  934
1477474440.092:  -3173  64   8  934
1477474440.094:  -3218  64   8  934
1477474440.097:  -3240  64   8  934
1477474440.099:  -3185  64   8  934
1477474440.100:  -3070  64   8  934
1477474440.104:  -2945  64   8  934
1477474440.104:  -2835  64   8  934
1477474440.113:  -2729  64   8  934
1477474440.114:  -2623  64   8  934
1477474440.114:  -2534  64   8  934
1477474440.114:  -2483  64   8  934
1477474440.114:  -2460  64   8  934
1477474440.118:  -2436  64   8  934
1477474440.118:  -2392  64   8  934
1477474440.180:  -2334  64   8  934
1477474440.183:  -2266  64   8  934
1477474440.185:  -2187  64   8  934
1477474440.185:  -2096  64   8  934
1477474440.186:  -2015  64   8  934
1477474440.187:  -1979  64   8  934
1477474440.195:  -2010  64   8  934
1477474440.204:  -2081  64   8  934
1477474440.204:  -2141  64   8  934
1477474440.205:  -2147  64   8  934
1477474440.206:  -2094  64   8  934
1477474440.206:  -2000  64   8  934
1477474440.207:  -1888  64   8  934
1477474440.207:  -1777  64   8  934
1477474440.207:  -1690  64   8  934
1477474440.207:  -1656  64   8  934
1477474440.207:  -1688  64   8  934
1477474440.207:  -1762  64   8  934
1477474440.207:  -1838  64   8  934
1477474440.207:  -1891  64   8  934
1477474440.208:  -1933  64   8  934
1477474440.208:  -1978  64   8  934
1477474440.208:  -2015  64   8  934
1477474440.208:  -2008  64   8  934
1477474440.208:  -1938  64   8  934
1477474440.208:  -1833  64   8  934
1477474440.209:  -1743  64   8  934
1477474440.209:  -1694  64   8  934
1477474440.209:  -1669  64   8  934
1477474440.209:  -1639  64   8  934
1477474440.209:  -1594  64   8  934
1477474440.209:  -1544  64   8  934
1477474440.209:  -1502  64   8  934
1477474440.210:  -1469  64   8  934
1477474440.210:  -1443  64   8  934
1477474440.210:  -1439  64   8  934
1477474440.210:  -1477  64   8  934
1477474440.211:  -1554  64   8  934
1477474440.211:  -1636  64   8  934
1477474440.211:  -1684  64   8  934
1477474440.211:  -1675  64   8  934
1477474440.211:  -1628  64   8  934
1477474440.211:  -1571  64   8  934
1477474440.212:  -1518  64   8  934
1477474440.212:  -1472  64   8  934
1477474440.212:  -1442  64   8  934
1477474440.212:  -1443  64   8  934
1477474440.233:  -1481  64   8  934
1477474440.233:  -1528  64   8  934
1477474440.235:  -1549  64   8  934
1477474440.236:  -1530  64   8  934
1477474440.239:  -1497  64   8  934
1477474440.239:  -1476  64   8  934
1477474440.239:  -1466  64   8  934
1477474440.239:  -1448  64   8  934
1477474440.240:  -1427  64   8  934
1477474440.240:  -1441  64   8  934
1477474440.240:  -1523  64   8  934
1477474440.240:  -1655  64   8  934
1477474440.240:  -1786  64   8  934
1477474440.241:  -1874  64   8  934
1477474440.243:  -1913  64   8  934
1477474440.243:  -1923  64   8  934
1477474440.254:  -1923  64   8  934
1477474440.254:  -1932  64   8  934
1477474440.254:  -1965  64   8  934
1477474440.254:  -2036  64   8  934
1477474440.255:  -2140  64   8  934
1477474440.255:  -2251  64   8  934
1477474440.255:  -2344  64   8  934
1477474440.259:  -2410  64   8  934
1477474440.259:  -2453  64   8  934
1477474440.261:  -2469  64   8  934
1477474440.264:  -2451  64   8  934
1477474440.265:  -2411  64   8  934
1477474440.267:  -2385  64   8  934
1477474440.269:  -2406  64   8  934
1477474440.274:  -2478  64   8  934
1477474440.275:  -2575  64   8  934
1477474440.281:  -2672  64   8  934
1477474440.281:  -2763  64   8  934
1477474440.294:  -2845  64   8  934
1477474440.361:  -2900  64   8  934
1477474440.362:  -2909  64   8  934
1477474440.362:  -2881  64   8  934
1477474440.362:  -2853  64   8  934
1477474440.362:  -2868  64   8  934
1477474440.362:  -2933  64   8  934
1477474440.362:  -3009  64   8  934
1477474440.363:  -3050  64   8  934
1477474440.363:  -3043  64   8  934
1477474440.363:  -3016  64   8  934
1477474440.364:  -3002  64   8  934
1477474440.364:  -3005  64   8  934
1477474440.364:  -3002  64   8  934
1477474440.364:  -2967  64   8  934
1477474440.364:  -2908  64   8  934
1477474440.364:  -2862  64   8  934
1477474440.364:  -2861  64   8  934
1477474440.365:  -2901  64   8  934
1477474440.365:  -2942  64   8  934
1477474440.365:  -2938  64   8  934
1477474440.365:  -2873  64   8  934
1477474440.365:  -2768  64   8  934
1477474440.365:  -2673  64   8  934
1477474440.365:  -2623  64   8  934
1477474440.366:  -2628  64   8  934
1477474440.366:  -2667  64   8  934
1477474440.366:  -2711  64   8  934
1477474440.366:  -2749  64   8  934
1477474440.366:  -2785  64   8  934
1477474440.367:  -2825  64   8  934
1477474440.367:  -2853  64   8  934
1477474440.367:  -2838  64   8  934
1477474440.367:  -2769  64   8  934
1477474440.367:  -2667  64   8  934
1477474440.368:  -2576  64   8  934
1477474440.368:  -2526  64   8  934
1477474440.368:  -2511  64   8  934
1477474440.368:  -2506  64   8  934
1477474440.369:  -2487  64   8  934
1477474440.369:  -2448  64   8  934
1477474440.369:  -2389  64   8  934
1477474440.369:  -2306  64   8  934
1477474440.370:  -2200  64   8  934
1477474440.376:  -2087  64   8  934
1477474440.376:  -1994  64   8  934
1477474440.385:  -1938  64   8  934
1477474440.385:  -1915  64   8  934
1477474440.385:  -1900  64   8  934
1477474440.385:  -1874  64   8  934
1477474440.385:  -1839  64   8  934
1477474440.385:  -1807  64   8  934
