timestamp: ADC HeartRate4sAverage HeartRate30sAverage HRV8sAverage
1477468168.312:   -352  73   9  833
1477468168.312:   -365  73   9  833
1477468168.321:   -367  73   9  833
1477468168.321:   -356  73   9  833
1477468168.321:   -344  73   9  833
1477468168.321:   -347  73   9  833
1477468168.321:   -360  73   9  833
1477468168.321:   -368  73   9  833
1477468168.321:   -362  73   9  833
1477468168.322:   -347  73   9  833
1477468168.322:   -338  73   9  833
1477468168.322:   -335  73   9  833
1477468168.323:   -333  73   9  833
1477468168.323:   -326  73   9  833
1477468168.323:   -318  73   9  833
1477468168.323:   -313  73   9  833
1477468168.323:   -311  73   9  833
1477468168.324:   -308  73   9  833
1477468168.324:   -304  73   9  833
1477468168.324:   -304  73   9  833
1477468168.324:   -305  73   9  833
1477468168.324:   -302  73   9  833
1477468168.325:   -296  73   9  833
1477468168.325:   -295  73   9  833
1477468168.325:   -305  73   9  833
1477468168.325:   -320  73   9  833
1477468168.325:   -331  73   9  833
1477468168.325:   -334  73   9  833
1477468168.326:   -336  73   9  833
1477468168.326:   -339  73   9  833
1477468168.328:   -339  73   9  833
1477468168.328:   -329  73   9  833
1477468168.329:   -308  73   9  833
1477468168.331:   -287  73   9  833
1477468168.340:   -272  73   9  833
1477468168.340:   -264  73   9  833
1477468168.340:   -260  73   9  833
1477468168.341:   -262  73   9  833
1477468168.341:   -272  73   9  833
1477468168.342:   -285  73   9  833
1477468168.345:   -297  73   9  833
1477468168.349:   -306  73   9  833
1477468168.360:   -316  73   9  833
1477468168.361:   -327  73   9  833
1477468168.362:   -335  73   9  833
1477468168.362:   -337  73   9  833
1477468168.363:   -333  73   9  833
1477468168.363:   -328  73   9  833
1477468168.364:   -326  73   9  833
1477468168.364:   -326  73   9  833
1477468168.365:   -325  73   9  833
1477468168.366:   -322  73   9  833
1477468168.387:   -319  73   9  833
1477468168.387:   -314  73   9  833
1477468168.387:   -307  73   9  833
1477468168.388:   -300  73   9  833
1477468168.388:   -298  73   9  833
1477468168.388:   -303  73   9  833
1477468168.388:   -312  73   9  833
1477468168.388:   -319  73   9  833
1477468168.388:   -317  73   9  833
1477468168.389:   -312  73   9  833
1477468168.390:   -311  73   9  833
1477468168.390:   -316  73   9  833
1477468168.393:   -323  73   9  833
1477468168.395:   -328  73   9  833
1477468168.395:   -330  73   9  833
1477468168.397:   -333  73   9  833
1477468168.400:   -335  73   9  833
1477468168.404:   -331  73   9  833
1477468168.413:   -321  73   9  833
1477468168.414:   -311  73   9  833
1477468168.414:   -311  73   9  833
1477468168.415:   -319  73   9  833
1477468168.415:   -323  73   9  833
1477468168.415:   -317  73   9  833
1477468168.418:   -306  73   9  833
1477468168.419:   -297  73   9  833
1477468168.423:   -295  73   9  833
1477468168.425:   -299  73   9  833
1477468168.428:   -303  73   9  833
1477468168.428:   -306  73   9  833
1477468168.430:   -307  73   9  833
1477468168.432:   -304  73   9  833
1477468168.432:   -299  73   9  833
1477468168.434:   -294  73   9  833
1477468168.435:   -293  73   9  833
1477468168.436:   -299  73   9  833
1477468168.439:   -311  73   9  833
1477468168.441:   -326  73   9  833
1477468168.459:   -334  73   9  833
1477468168.460:   -331  73   9  833
1477468168.461:   -321  73   9  833
1477468168.462:   -315  73   9  833
1477468168.463:   -322  73   9  833
1477468168.463:   -335  73   9  833
1477468168.464:   -340  73   9  833
1477468168.464:   -329  73   9  833
1477468168.465:   -307  73   9  833
1477468168.466:   -290  73   9  833
1477468168.466:   -288  73   9  833
1477468168.468:   -294  73   9  833
1477468168.479:   -293  73   9  833
1477468168.480:   -282  73   9  833
1477468168.481:   -267  73   9  833
1477468168.481:   -259  73   9  833
1477468168.482:   -258  73   9  833
1477468168.483:   -259  73   9  833
1477468168.483:   -258  73   9  833
1477468168.484:   -255  73   9  833
1477468168.484:   -252  73   9  833
1477468168.487:   -238  73   9  833
1477468168.496:   -195  73   9  833
1477468168.497:   -109  73   9  833
1477468168.498:     11  73   9  833
1477468168.498:    146  73   9  833
1477468168.499:    284  73   9  833
1477468168.500:    431  73   9  833
1477468168.501:    604  73   9  833
1477468168.501:    808  73   9  833
1477468168.502:   1030  73   9  833
1477468168.503:   1245  73   9  833
1477468168.513:   1436  73   9  833
1477468168.514:   1602  73   9  833
1477468168.515:   1749  73   9  833
1477468168.516:   1873  73   9  833
1477468168.517:   1963  73   9  833
1477468168.517:   2011  73   9  833
1477468168.518:   2025  73   9  833
1477468168.519:   2015  73   9  833
1477468168.521:   1973  73   9  833
1477468168.524:   1862  73   9  833
1477468168.528:   1643  73   9  833
1477468168.528:   1320  73   9  833
1477468168.543:    950  73   9  833
1477468168.543:    602  73   9  833
1477468168.543:    305  73   9  833
1477468168.543:     34  73   9  833
1477468168.543:   -240  73   9  833
1477468168.543:   -495  73   9  833
1477468168.544:   -671  73   9  833
1477468168.544:   -728  73   9  833
1477468168.544:   -681  73   9  833
1477468168.546:   -591  73   9  833
1477468168.548:   -512  73   9  833
1477468168.551:   -466  73   9  833
1477468168.555:   -446  73   9  833
1477468168.555:   -444  73   9  833
1477468168.586:   -459  73   9  833
1477468168.587:   -494  73   9  833
1477468168.587:   -550  73   9  833
1477468168.587:   -620  73   9  833
1477468168.587:   -690  73   9  833
1477468168.587:   -740  73   9  833
1477468168.588:   -759  73   9  833
1477468168.588:   -752  73   9  833
1477468168.588:   -735  73   9  833
1477468168.589:   -715  73   9  833
1477468168.589:   -681  73   9  833
1477468168.589:   -628  73   9  833
1477468168.590:   -569  73   9  833
1477468168.590:   -534  73   9  833
1477468168.591:   -537  73   9  833
1477468168.591:   -559  73   9  833
1477468168.591:   -570  73   9  833
1477468168.591:   -550  73   9  833
1477468168.592:   -516  73   9  833
1477468168.596:   -492  73   9  833
1477468168.597:   -489  73   9  833
1477468168.598:   -494  73   9  833
1477468168.612:   -487  73   9  833
1477468168.613:   -463  73   9  833
1477468168.613:   -438  73   9  833
1477468168.613:   -428  73   9  833
1477468168.613:   -430  73   9  833
1477468168.613:   -428  73   9  833
1477468168.613:   -408  73   9  833
1477468168.614:   -376  73   9  833
1477468168.616:   -354  73   9  833
1477468168.620:   -357  75  10  834
1477468168.620:   -379  75  10  834
1477468168.622:   -401  75  10  834
1477468168.625:   -410  75  10  834
1477468168.625:   -405  75  10  834
1477468168.634:   -400  75  10  834
1477468168.634:   -404  75  10  834
1477468168.635:   -418  75  10  834
1477468168.635:   -424  75  10  834
1477468168.638:   -403  75  10  834
1477468168.638:   -349  75  10  834
1477468168.640:   -272  75  10  834
1477468168.641:   -164  75  10  834
1477468168.642:     17  75  10  834
1477468168.645:    306  75  10  834
1477468168.653:    676  75  10  834
1477468168.653:   1040  75  10  834
1477468168.653:   1323  75  10  834
1477468168.654:   1531  75  10  834
1477468168.657:   1713  75  10  834
1477468168.657:   1872  75  10  834
1477468168.659:   1926  75  10  834
1477468168.661:   1785  75  10  834
1477468168.665:   1452  75  10  834
1477468168.665:   1037  75  10  834
1477468168.667:    659  75  10  834
1477468168.668:    357  75  10  834
1477468168.669:     85  75  10  834
1477468168.672:   -218  75  10  834
1477468168.684:   -559  75  10  834
1477468168.685:   -877  75  10  834
1477468168.685:  -1102  75  10  834
1477468168.685:  -1221  75  10  834
1477468168.687:  -1308  75  10  834
1477468168.687:  -1468  75  10  834
1477468168.687:  -1744  75  10  834
1477468168.690:  -2085  75  10  834
1477468168.690:  -2411  75  10  834
1477468168.692:  -2695  75  10  834
1477468168.693:  -2970  75  10  834
1477468168.698:  -3242  75  10  834
1477468168.711:  -3448  75  10  834
1477468168.712:  -3513  75  10  834
1477468168.712:  -3434  75  10  834
1477468168.712:  -3276  75  10  834
1477468168.714:  -3076  75  10  834
1477468168.714:  -2797  75  10  834
1477468168.715:  -2397  75  10  834
1477468168.715:  -1915  75  10  834
1477468168.715:  -1470  75  10  834
1477468168.716:  -1150  75  10  834
1477468168.717:   -939  75  10  834
1477468168.719:   -771  75  10  834
1477468168.731:   -614  75  10  834
1477468168.731:   -498  75  10  834
1477468168.732:   -463  75  10  834
1477468168.732:   -499  75  10  834
1477468168.732:   -565  75  10  834
1477468168.732:   -623  75  10  834
1477468168.734:   -657  75  10  834
1477468168.735:   -662  75  10  834
1477468168.743:   -636  75  10  834
1477468168.743:   -583  75  10  834
1477468168.752:   -520  75  10  834
1477468168.753:   -469  75  10  834
1477468168.753:   -440  75  10  834
1477468168.753:   -427  75  10  834
1477468168.754:   -421  75  10  834
1477468168.754:   -420  75  10  834
1477468168.754:   -428  75  10  834
1477468168.755:   -443  75  10  834
1477468168.757:   -453  75  10  834
1477468168.758:   -448  75  10  834
1477468168.761:   -431  75  10  834
1477468168.762:   -421  75  10  834
1477468168.769:   -426  75  10  834
1477468168.769:   -435  75  10  834
1477468168.770:   -431  75  10  834
1477468168.770:   -408  75  10  834
1477468168.772:   -384  75  10  834
1477468168.774:   -374  75  10  834
1477468168.775:   -376  75  10  834
1477468168.780:   -371  75  10  834
1477468168.780:   -348  75  10  834
1477468168.782:   -320  75  10  834
1477468168.783:   -309  75  10  834
1477468168.786:   -318  75  10  834
1477468168.798:   -326  75  10  834
1477468168.798:   -315  75  10  834
1477468168.799:   -295  75  10  834
1477468168.800:   -291  75  10  834
1477468168.801:   -313  75  10  834
1477468168.802:   -340  75  10  834
1477468168.803:   -344  75  10  834
1477468168.803:   -325  75  10  834
1477468168.804:   -304  75  10  834
1477468168.807:   -303  75  10  834
1477468168.821:   -313  75  10  834
1477468168.822:   -311  75  10  834
1477468168.823:   -290  75  10  834
1477468168.823:   -265  75  10  834
1477468168.824:   -256  75  10  834
1477468168.825:   -263  75  10  834
1477468168.826:   -268  75  10  834
1477468168.828:   -260  75  10  834
1477468168.829:   -244  75  10  834
1477468168.829:   -234  75  10  834
1477468168.830:   -235  75  10  834
1477468168.831:   -239  75  10  834
1477468168.832:   -234  75  10  834
1477468168.835:   -223  75  10  834
1477468168.835:   -214  75  10  834
1477468168.838:   -215  75  10  834
1477468168.839:   -221  75  10  834
1477468168.841:   -218  75  10  834
1477468168.843:   -203  75  10  834
1477468168.844:   -180  75  10  834
1477468168.849:   -163  75  10  834
1477468168.849:   -152  75  10  834
1477468168.859:   -143  75  10  834
1477468168.860:   -130  75  10  834
1477468168.860:   -116  75  10  834
1477468168.861:   -111  75  10  834
1477468168.861:   -118  75  10  834
1477468168.863:   -130  75  10  834
1477468168.863:   -136  75  10  834
1477468168.865:   -133  75  10  834
1477468168.867:   -126  75  10  834
1477468168.868:   -124  75  10  834
1477468168.871:   -128  75  10  834
1477468168.872:   -128  75  10  834
1477468168.877:   -114  75  10  834
1477468168.877:    -83  75  10  834
1477468168.879:    -50  75  10  834
1477468168.880:    -30  75  10  834
1477468168.895:    -24  75  10  834
1477468168.896:    -18  75  10  834
1477468168.896:      0  75  10  834
1477468168.897:     24  75  10  834
1477468168.897:     35  75  10  834
1477468168.901:     26  75  10  834
1477468168.914:     14  75  10  834
1477468168.915:     14  75  10  834
1477468168.915:     25  75  10  834
1477468168.916:     38  75  10  834
1477468168.917:     51  75  10  834
1477468168.993:     76  75  10  834
1477468169.006:    118  75  10  834
1477468169.007:    162  75  10  834
1477468169.007:    187  75  10  834
1477468169.008:    190  75  10  834
1477468169.010:    193  75  10  834
1477468169.010:    214  75  10  834
1477468169.011:    248  75  10  834
1477468169.011:    275  75  10  834
1477468169.013:    283  75  10  834
1477468169.013:    282  75  10  834
1477468169.014:    284  75  10  834
1477468169.014:    292  75  10  834
1477468169.014:    299  75  10  834
1477468169.015:    299  75  10  834
1477468169.027:    293  75  10  834
1477468169.027:    292  75  10  834
1477468169.027:    302  75  10  834
1477468169.028:    318  75  10  834
1477468169.028:    323  75  10  834
1477468169.028:    306  75  10  834
1477468169.028:    281  75  10  834
1477468169.028:    275  75  10  834
1477468169.029:    302  75  10  834
1477468169.029:    346  75  10  834
1477468169.029:    365  75  10  834
1477468169.029:    344  75  10  834
1477468169.029:    305  75  10  834
1477468169.030:    283  75  10  834
1477468169.030:    290  75  10  834
1477468169.030:    305  75  10  834
1477468169.030:    306  75  10  834
1477468169.032:    289  75  10  834
1477468169.032:    269  75  10  834
1477468169.032:    253  75  10  834
1477468169.032:    241  75  10  834
1477468169.032:    229  75  10  834
1477468169.033:    221  75  10  834
1477468169.033:    215  75  10  834
1477468169.033:    204  75  10  834
1477468169.033:    182  75  10  834
1477468169.033:    151  75  10  834
1477468169.034:    119  75  10  834
1477468169.035:     92  75  10  834
1477468169.036:     71  75  10  834
1477468169.049:     55  75  10  834
1477468169.049:     40  75  10  834
1477468169.049:     17  75  10  834
1477468169.049:    -20  75  10  834
1477468169.050:    -68  75  10  834
1477468169.050:   -111  75  10  834
1477468169.050:   -135  75  10  834
1477468169.050:   -144  75  10  834
1477468169.050:   -156  75  10  834
1477468169.051:   -185  75  10  834
1477468169.051:   -229  75  10  834
1477468169.051:   -272  75  10  834
1477468169.051:   -301  75  10  834
1477468169.051:   -314  75  10  834
1477468169.052:   -320  75  10  834
1477468169.052:   -329  75  10  834
1477468169.052:   -351  75  10  834
1477468169.053:   -381  75  10  834
1477468169.053:   -409  75  10  834
1477468169.054:   -423  75  10  834
1477468169.054:   -429  75  10  834
1477468169.054:   -442  75  10  834
1477468169.055:   -469  75  10  834
1477468169.055:   -503  75  10  834
1477468169.056:   -525  75  10  834
1477468169.056:   -525  75  10  834
1477468169.056:   -508  75  10  834
1477468169.056:   -491  75  10  834
1477468169.057:   -485  75  10  834
1477468169.057:   -489  75  10  834
1477468169.057:   -496  75  10  834
1477468169.057:   -496  75  10  834
1477468169.058:   -488  75  10  834
1477468169.058:   -484  75  10  834
1477468169.060:   -497  75  10  834
1477468169.064:   -523  75  10  834
1477468169.064:   -546  75  10  834
1477468169.066:   -554  75  10  834
1477468169.067:   -550  75  10  834
1477468169.068:   -553  75  10  834
1477468169.072:   -564  75  10  834
1477468169.073:   -569  75  10  834
1477468169.085:   -559  75  10  834
1477468169.086:   -545  75  10  834
1477468169.087:   -543  75  10  834
1477468169.087:   -549  75  10  834
1477468169.088:   -539  75  10  834
1477468169.088:   -508  75  10  834
1477468169.089:   -478  75  10  834
1477468169.090:   -477  75  10  834
1477468169.091:   -505  75  10  834
1477468169.092:   -529  75  10  834
1477468169.094:   -526  75  10  834
1477468169.095:   -507  75  10  834
1477468169.100:   -507  75  10  834
1477468169.100:   -536  75  10  834
1477468169.102:   -569  75  10  834
1477468169.104:   -581  75  10  834
1477468169.113:   -568  75  10  834
1477468169.114:   -551  75  10  834
1477468169.125:   -541  75  10  834
1477468169.126:   -534  75  10  834
1477468169.126:   -526  75  10  834
1477468169.126:   -520  75  10  834
1477468169.127:   -525  75  10  834
1477468169.127:   -531  75  10  834
1477468169.128:   -526  75  10  834
1477468169.128:   -507  75  10  834
1477468169.128:   -487  75  10  834
1477468169.129:   -483  75  10  834
1477468169.130:   -486  75  10  834
1477468169.132:   -485  75  10  834
1477468169.148:   -471  75  10  834
1477468169.148:   -454  75  10  834
1477468169.149:   -449  75  10  834
1477468169.149:   -461  75  10  834
1477468169.150:   -481  75  10  834
1477468169.150:   -496  75  10  834
1477468169.151:   -501  75  10  834
1477468169.153:   -497  75  10  834
1477468169.153:   -494  75  10  834
1477468169.154:   -495  75  10  834
1477468169.155:   -494  75  10  834
1477468169.155:   -479  75  10  834
1477468169.169:   -449  75  10  834
1477468169.169:   -418  75  10  834
1477468169.170:   -407  75  10  834
1477468169.171:   -420  75  10  834
1477468169.171:   -439  75  10  834
1477468169.172:   -440  75  10  834
1477468169.173:   -429  75  10  834
1477468169.177:   -430  75  10  834
1477468169.187:   -457  75  10  834
1477468169.188:   -495  75  10  834
1477468169.189:   -511  75  10  834
1477468169.189:   -497  75  10  834
1477468169.190:   -474  75  10  834
1477468169.190:   -470  75  10  834
1477468169.191:   -488  75  10  834
1477468169.192:   -504  75  10  834
1477468169.194:   -501  75  10  834
1477468169.194:   -484  75  10  834
1477468169.195:   -471  75  10  834
1477468169.196:   -477  75  10  834
1477468169.197:   -493  75  10  834
1477468169.199:   -505  75  10  834
1477468169.201:   -496  75  10  834
1477468169.204:   -465  75  10  834
1477468169.205:   -434  75  10  834
1477468169.207:   -431  75  10  834
1477468169.208:   -466  75  10  834
1477468169.209:   -512  75  10  834
1477468169.212:   -529  75  10  834
1477468169.214:   -506  75  10  834
1477468169.227:   -475  75  10  834
1477468169.227:   -483  75  10  834
1477468169.227:   -532  75  10  834
1477468169.227:   -569  75  10  834
1477468169.227:   -546  75  10  834
1477468169.228:   -473  75  10  834
1477468169.229:   -410  75  10  834
1477468169.233:   -401  75  10  834
1477468169.233:   -433  75  10  834
1477468169.238:   -453  75  10  834
1477468169.247:   -444  75  10  834
1477468169.247:   -431  75  10  834
1477468169.247:   -446  75  10  834
1477468169.247:   -476  75  10  834
1477468169.247:   -493  75  10  834
1477468169.248:   -486  75  10  834
1477468169.248:   -476  75  10  834
1477468169.271:   -483  75  10  834
1477468169.292:   -494  75  10  834
1477468169.292:   -486  75  10  834
1477468169.293:   -454  75  10  834
1477468169.294:   -427  75  10  834
1477468169.294:   -428  75  10  834
1477468169.295:   -448  75  10  834
1477468169.296:   -460  75  10  834
1477468169.296:   -452  75  10  834
1477468169.296:   -441  75  10  834
1477468169.297:   -445  75  10  834
1477468169.297:   -455  75  10  834
1477468169.297:   -452  75  10  834
1477468169.298:   -436  75  10  834
1477468169.298:   -421  75  10  834
1477468169.298:   -421  75  10  834
1477468169.299:   -427  75  10  834
1477468169.299:   -425  75  10  834
1477468169.299:   -413  75  10  834
1477468169.300:   -409  75  10  834
1477468169.300:   -420  75  10  834
1477468169.301:   -433  75  10  834
1477468169.301:   -436  75  10  834
1477468169.302:   -434  75  10  834
1477468169.302:   -443  75  10  834
1477468169.304:   -460  75  10  834
1477468169.304:   -464  75  10  834
1477468169.305:   -441  75  10  834
1477468169.306:   -404  75  10  834
1477468169.318:   -391  75  10  834
1477468169.319:   -411  75  10  834
1477468169.319:   -441  75  10  834
1477468169.320:   -441  75  10  834
1477468169.320:   -406  75  10  834
1477468169.320:   -369  75  10  834
1477468169.321:   -370  75  10  834
1477468169.321:   -409  75  10  834
1477468169.322:   -443  75  10  834
1477468169.325:   -429  75  10  834
1477468169.329:   -379  75  10  834
1477468169.329:   -345  75  10  834
1477468169.348:   -358  75  10  834
1477468169.349:   -385  75  10  834
1477468169.350:   -360  75  10  834
1477468169.351:   -253  75  10  834
1477468169.353:   -100  75  10  834
1477468169.353:     44  75  10  834
1477468169.353:    170  75  10  834
1477468169.354:    325  75  10  834
1477468169.354:    551  75  10  834
1477468169.354:    823  75  10  834
1477468169.354:   1085  75  10  834
1477468169.376:   1295  75  10  834
1477468169.383:   1461  75  10  834
1477468169.384:   1603  75  10  834
1477468169.385:   1717  75  10  834
1477468169.386:   1776  75  10  834
1477468169.387:   1764  75  10  834
1477468169.388:   1693  75  10  834
1477468169.388:   1598  75  10  834
1477468169.389:   1509  75  10  834
1477468169.389:   1427  75  10  834
1477468169.390:   1335  75  10  834
1477468169.391:   1198  75  10  834
1477468169.391:    992  75  10  834
1477468169.392:    727  75  10  834
1477468169.392:    458  75  10  834
1477468169.392:    226  75  10  834
1477468169.393:     29  75  10  834
1477468169.404:   -175  75  10  834
1477468169.407:   -414  75  10  834
1477468169.408:   -653  75  10  834
1477468169.409:   -822  75  10  834
1477468169.409:   -871  75  10  834
1477468169.411:   -822  75  10  834
1477468169.412:   -747  75  10  834
1477468169.413:   -703  75  10  834
1477468169.413:   -693  75  10  834
1477468169.413:   -683  75  10  834
1477468169.424:   -651  75  10  834
1477468169.425:   -618  75  10  834
1477468169.426:   -624  75  10  834
1477468169.427:   -681  75  10  834
1477468169.428:   -756  75  10  834
1477468169.429:   -805  75  10  834
1477468169.430:   -820  75  10  834
1477468169.430:   -830  75  10  834
1477468169.431:   -845  75  10  834
1477468169.431:   -849  75  10  834
1477468169.432:   -814  75  10  834
1477468169.433:   -745  75  10  834
1477468169.445:   -679  75  10  834
1477468169.445:   -652  75  10  834
1477468169.446:   -659  75  10  834
1477468169.447:   -677  75  10  834
1477468169.448:   -685  75  10  834
1477468169.448:   -684  75  10  834
1477468169.449:   -676  75  10  834
1477468169.449:   -660  75  10  834
1477468169.450:   -642  75  10  834
1477468169.451:   -634  75  10  834
1477468169.462:   -632  75  10  834
1477468169.463:   -617  75  10  834
1477468169.464:   -574  75  10  834
1477468169.464:   -513  75  10  834
1477468169.465:   -469  75  10  834
1477468169.465:   -461  75  10  834
1477468169.466:   -470  75  10  834
1477468169.467:   -466  75  10  834
1477468169.469:   -437  75  10  834
1477468169.471:   -408  75  10  834
1477468169.482:   -401  75  10  834
1477468169.483:   -418  74   9  836
1477468169.487:   -428  74   9  836
1477468169.488:   -415  74   9  836
1477468169.488:   -391  74   9  836
1477468169.489:   -384  74   9  836
1477468169.489:   -401  74   9  836
1477468169.490:   -415  74   9  836
1477468169.491:   -396  74   9  836
1477468169.491:   -342  74   9  836
1477468169.492:   -287  74   9  836
1477468169.495:   -263  74   9  836
1477468169.496:   -247  74   9  836
1477468169.496:   -161  74   9  836
1477468169.497:     58  74   9  836
1477468169.499:    380  74   9  836
1477468169.499:    689  74   9  836
1477468169.501:    897  74   9  836
1477468169.510:   1026  74   9  836
1477468169.511:   1160  74   9  836
1477468169.523:   1326  74   9  836
1477468169.524:   1438  74   9  836
1477468169.525:   1384  74   9  836
1477468169.525:   1160  74   9  836
1477468169.527:    871  74   9  836
1477468169.528:    606  74   9  836
1477468169.529:    355  74   9  836
1477468169.529:     70  74   9  836
1477468169.541:   -233  74   9  836
1477468169.541:   -469  74   9  836
1477468169.541:   -591  74   9  836
1477468169.541:   -651  74   9  836
1477468169.542:   -739  74   9  836
1477468169.542:   -871  74   9  836
1477468169.542:   -978  74   9  836
1477468169.542:  -1015  74   9  836
1477468169.542:  -1033  74   9  836
1477468169.543:  -1121  74   9  836
1477468169.544:  -1310  74   9  836
1477468169.545:  -1561  74   9  836
1477468169.546:  -1818  74   9  836
1477468169.549:  -2052  74   9  836
1477468169.550:  -2252  74   9  836
1477468169.554:  -2404  74   9  836
1477468169.560:  -2490  74   9  836
1477468169.560:  -2521  74   9  836
1477468169.561:  -2512  74   9  836
1477468169.561:  -2448  74   9  836
1477468169.562:  -2287  74   9  836
1477468169.564:  -2008  74   9  836
1477468169.568:  -1663  74   9  836
1477468169.570:  -1343  74   9  836
1477468169.579:  -1120  74   9  836
1477468169.580:   -983  74   9  836
1477468169.582:   -878  74   9  836
1477468169.583:   -773  74   9  836
1477468169.588:   -683  74   9  836
1477468169.588:   -660  74   9  836
1477468169.599:   -722  74   9  836
1477468169.600:   -821  74   9  836
1477468169.601:   -886  74   9  836
1477468169.602:   -877  74   9  836
1477468169.603:   -823  74   9  836
1477468169.604:   -771  74   9  836
1477468169.605:   -743  74   9  836
1477468169.605:   -720  74   9  836
1477468169.606:   -685  74   9  836
1477468169.606:   -645  74   9  836
1477468169.606:   -617  74   9  836
1477468169.608:   -609  74   9  836
1477468169.619:   -613  74   9  836
1477468169.619:   -628  74   9  836
1477468169.619:   -649  74   9  836
1477468169.619:   -660  74   9  836
1477468169.620:   -641  74   9  836
1477468169.620:   -600  74   9  836
1477468169.620:   -573  74   9  836
1477468169.620:   -590  74   9  836
1477468169.623:   -632  74   9  836
1477468169.623:   -648  74   9  836
1477468169.625:   -617  74   9  836
1477468169.627:   -576  74   9  836
1477468169.638:   -571  74   9  836
1477468169.638:   -598  74   9  836
1477468169.638:   -619  74   9  836
1477468169.639:   -607  74   9  836
1477468169.639:   -579  74   9  836
1477468169.649:   -564  74   9  836
1477468169.651:   -563  74   9  836
1477468169.653:   -553  74   9  836
1477468169.654:   -528  74   9  836
1477468169.655:   -512  74   9  836
1477468169.655:   -523  74   9  836
1477468169.655:   -545  74   9  836
1477468169.655:   -547  74   9  836
1477468169.662:   -515  74   9  836
1477468169.663:   -480  74   9  836
1477468169.663:   -470  74   9  836
1477468169.663:   -491  74   9  836
1477468169.664:   -512  74   9  836
1477468169.665:   -503  74   9  836
1477468169.666:   -465  74   9  836
1477468169.669:   -433  74   9  836
1477468169.675:   -427  74   9  836
1477468169.676:   -443  74   9  836
1477468169.678:   -451  74   9  836
1477468169.697:   -444  74   9  836
1477468169.698:   -445  74   9  836
1477468169.699:   -477  74   9  836
1477468169.699:   -526  74   9  836
1477468169.700:   -547  74   9  836
1477468169.701:   -516  74   9  836
1477468169.703:   -463  74   9  836
1477468169.704:   -439  74   9  836
1477468169.705:   -458  74   9  836
1477468169.706:   -482  74   9  836
1477468169.716:   -473  74   9  836
1477468169.716:   -438  74   9  836
1477468169.717:   -412  74   9  836
1477468169.717:   -414  74   9  836
1477468169.717:   -431  74   9  836
1477468169.718:   -439  74   9  836
1477468169.718:   -439  74   9  836
1477468169.719:   -440  74   9  836
1477468169.719:   -443  74   9  836
1477468169.720:   -438  74   9  836
1477468169.721:   -422  74   9  836
1477468169.722:   -412  74   9  836
1477468169.733:   -413  74   9  836
1477468169.733:   -412  74   9  836
1477468169.733:   -405  74   9  836
1477468169.733:   -399  74   9  836
1477468169.733:   -415  74   9  836
1477468169.734:   -437  74   9  836
1477468169.734:   -435  74   9  836
1477468169.734:   -399  74   9  836
1477468169.735:   -366  74   9  836
1477468169.737:   -383  74   9  836
1477468169.738:   -434  74   9  836
1477468169.741:   -451  74   9  836
1477468169.755:   -390  74   9  836
1477468169.756:   -295  74   9  836
1477468169.756:   -249  74   9  836
1477468169.757:   -273  74   9  836
1477468169.758:   -309  74   9  836
1477468169.759:   -289  74   9  836
1477468169.761:   -228  74   9  836
1477468169.761:   -195  74   9  836
1477468169.761:   -231  74   9  836
1477468169.762:   -289  74   9  836
1477468169.764:   -294  74   9  836
1477468169.764:   -238  74   9  836
1477468169.773:   -185  74   9  836
1477468169.773:   -185  74   9  836
1477468169.773:   -216  74   9  836
1477468169.774:   -217  74   9  836
1477468169.774:   -166  74   9  836
1477468169.778:    -97  74   9  836
1477468169.778:    -60  74   9  836
1477468169.780:    -63  74   9  836
1477468169.781:    -83  74   9  836
1477468169.788:    -95  74   9  836
1477468169.863:    -94  74   9  836
1477468169.863:    -90  74   9  836
1477468169.864:    -82  74   9  836
1477468169.865:    -78  74   9  836
1477468169.865:    -81  74   9  836
1477468169.866:    -82  74   9  836
1477468169.867:    -67  74   9  836
1477468169.867:    -36  74   9  836
1477468169.889:    -16  74   9  836
1477468169.889:    -34  74   9  836
1477468169.890:    -69  74   9  836
1477468169.890:    -80  74   9  836
1477468169.890:    -52  74   9  836
1477468169.890:    -28  74   9  836
1477468169.890:    -45  74   9  836
1477468169.891:    -96  74   9  836
1477468169.891:   -128  74   9  836
1477468169.891:   -111  74   9  836
1477468169.891:    -66  74   9  836
1477468169.891:    -38  74   9  836
1477468169.892:    -41  74   9  836
1477468169.892:    -63  74   9  836
1477468169.892:    -81  74   9  836
1477468169.893:    -84  74   9  836
1477468169.893:    -74  74   9  836
1477468169.894:    -60  74   9  836
1477468169.895:    -66  74   9  836
1477468169.895:   -107  74   9  836
1477468169.895:   -161  74   9  836
1477468169.895:   -187  74   9  836
1477468169.895:   -168  74   9  836
1477468169.895:   -139  74   9  836
1477468169.896:   -145  74   9  836
1477468169.896:   -193  74   9  836
1477468169.896:   -239  74   9  836
1477468169.896:   -244  74   9  836
1477468169.896:   -220  74   9  836
1477468169.897:   -213  74   9  836
1477468169.897:   -247  74   9  836
1477468169.897:   -301  74   9  836
1477468169.897:   -335  74   9  836
1477468169.898:   -332  74   9  836
1477468169.898:   -308  74   9  836
1477468169.898:   -298  74   9  836
1477468169.898:   -317  74   9  836
1477468169.898:   -352  74   9  836
1477468169.899:   -379  74   9  836
1477468169.899:   -377  74   9  836
1477468169.899:   -355  74   9  836
1477468169.899:   -340  74   9  836
1477468169.900:   -352  74   9  836
1477468169.900:   -394  74   9  836
1477468169.900:   -439  74   9  836
1477468169.900:   -460  74   9  836
1477468169.900:   -453  74   9  836
1477468169.901:   -436  74   9  836
1477468169.901:   -432  74   9  836
1477468169.901:   -442  74   9  836
1477468169.917:   -448  74   9  836
1477468169.918:   -439  74   9  836
1477468169.919:   -424  74   9  836
1477468169.920:   -419  74   9  836
1477468169.920:   -429  74   9  836
1477468169.921:   -437  74   9  836
1477468169.921:   -435  74   9  836
1477468169.922:   -447  74   9  836
1477468169.922:   -488  74   9  836
1477468169.923:   -533  74   9  836
1477468169.923:   -537  74   9  836
1477468169.924:   -492  74   9  836
1477468169.925:   -445  74   9  836
1477468169.928:   -442  74   9  836
1477468169.939:   -470  74   9  836
1477468169.939:   -478  74   9  836
1477468169.940:   -448  74   9  836
1477468169.940:   -417  74   9  836
1477468169.941:   -420  74   9  836
1477468169.941:   -441  74   9  836
1477468169.942:   -437  74   9  836
1477468169.944:   -408  74   9  836
1477468169.945:   -394  74   9  836
1477468169.946:   -423  74   9  836
1477468169.966:   -462  74   9  836
1477468169.966:   -459  74   9  836
1477468169.966:   -414  74   9  836
1477468169.966:   -375  74   9  836
1477468169.967:   -381  74   9  836
1477468169.967:   -426  74   9  836
1477468169.967:   -470  74   9  836
1477468169.967:   -487  74   9  836
1477468169.967:   -479  74   9  836
1477468169.968:   -464  74   9  836
1477468169.968:   -458  74   9  836
1477468169.970:   -466  74   9  836
1477468169.971:   -483  74   9  836
1477468169.973:   -495  74   9  836
1477468169.975:   -489  74   9  836
1477468169.976:   -463  74   9  836
1477468169.979:   -437  74   9  836
1477468169.979:   -431  74   9  836
1477468169.984:   -449  74   9  836
1477468169.985:   -475  74   9  836
1477468170.009:   -481  74   9  836
1477468170.009:   -461  74   9  836
1477468170.010:   -431  74   9  836
1477468170.011:   -416  74   9  836
1477468170.011:   -424  74   9  836
1477468170.011:   -442  74   9  836
1477468170.011:   -447  74   9  836
1477468170.012:   -435  74   9  836
1477468170.012:   -417  74   9  836
1477468170.012:   -409  74   9  836
1477468170.013:   -415  74   9  836
1477468170.013:   -423  74   9  836
1477468170.013:   -418  74   9  836
1477468170.014:   -405  74   9  836
1477468170.016:   -398  74   9  836
1477468170.017:   -408  74   9  836
1477468170.019:   -426  74   9  836
1477468170.019:   -439  74   9  836
1477468170.021:   -443  74   9  836
1477468170.026:   -442  74   9  836
1477468170.026:   -440  74   9  836
1477468170.027:   -435  74   9  836
1477468170.030:   -422  74   9  836
1477468170.034:   -406  74   9  836
1477468170.055:   -394  74   9  836
1477468170.056:   -392  74   9  836
1477468170.056:   -390  74   9  836
1477468170.056:   -378  74   9  836
1477468170.056:   -361  74   9  836
1477468170.057:   -354  74   9  836
1477468170.057:   -365  74   9  836
1477468170.057:   -380  74   9  836
1477468170.057:   -383  74   9  836
1477468170.059:   -370  74   9  836
1477468170.060:   -354  74   9  836
1477468170.061:   -351  74   9  836
1477468170.062:   -358  74   9  836
1477468170.065:   -358  74   9  836
1477468170.066:   -340  74   9  836
1477468170.066:   -312  74   9  836
1477468170.067:   -292  74   9  836
1477468170.072:   -287  74   9  836
1477468170.086:   -292  74   9  836
1477468170.087:   -298  74   9  836
1477468170.088:   -299  74   9  836
1477468170.090:   -299  74   9  836
1477468170.091:   -301  74   9  836
1477468170.092:   -302  74   9  836
1477468170.107:   -301  74   9  836
1477468170.108:   -298  74   9  836
1477468170.109:   -294  74   9  836
1477468170.111:   -289  74   9  836
1477468170.112:   -279  74   9  836
1477468170.113:   -265  74   9  836
1477468170.113:   -249  74   9  836
1477468170.114:   -239  74   9  836
1477468170.114:   -237  74   9  836
1477468170.115:   -242  74   9  836
1477468170.116:   -246  74   9  836
1477468170.116:   -245  74   9  836
1477468170.130:   -240  74   9  836
1477468170.131:   -235  74   9  836
1477468170.132:   -236  74   9  836
1477468170.132:   -239  74   9  836
1477468170.133:   -235  74   9  836
1477468170.134:   -219  74   9  836
1477468170.134:   -199  74   9  836
1477468170.137:   -184  74   9  836
1477468170.138:   -179  74   9  836
1477468170.139:   -181  74   9  836
1477468170.150:   -180  74   9  836
1477468170.151:   -177  74   9  836
1477468170.152:   -175  74   9  836
1477468170.153:   -178  74   9  836
1477468170.154:   -184  74   9  836
1477468170.156:   -191  74   9  836
1477468170.156:   -197  74   9  836
1477468170.157:   -199  74   9  836
1477468170.159:   -196  74   9  836
1477468170.160:   -186  74   9  836
1477468170.162:   -178  74   9  836
1477468170.163:   -175  74   9  836
1477468170.163:   -178  74   9  836
1477468170.163:   -179  74   9  836
1477468170.163:   -176  74   9  836
1477468170.164:   -173  74   9  836
1477468170.164:   -175  74   9  836
1477468170.164:   -184  74   9  836
1477468170.165:   -197  74   9  836
1477468170.165:   -208  74   9  836
1477468170.165:   -213  74   9  836
1477468170.165:   -212  74   9  836
1477468170.167:   -210  74   9  836
1477468170.172:   -210  74   9  836
1477468170.185:   -213  74   9  836
1477468170.186:   -209  74   9  836
1477468170.187:   -179  74   9  836
1477468170.187:   -115  74   9  836
1477468170.188:    -24  74   9  836
1477468170.188:     77  74   9  836
1477468170.189:    181  74   9  836
1477468170.189:    303  74   9  836
1477468170.189:    456  74   9  836
1477468170.191:    635  74   9  836
1477468170.192:    812  74   9  836
1477468170.193:    959  74   9  836
1477468170.213:   1068  74   9  836
1477468170.214:   1149  74   9  836
1477468170.214:   1208  74   9  836
1477468170.214:   1240  74   9  836
1477468170.215:   1235  74   9  836
1477468170.215:   1196  74   9  836
1477468170.215:   1141  74   9  836
1477468170.215:   1082  74   9  836
1477468170.215:   1019  74   9  836
1477468170.216:    934  74   9  836
1477468170.216:    805  74   9  836
1477468170.217:    627  74   9  836
1477468170.218:    418  74   9  836
1477468170.220:    210  74   9  836
1477468170.222:     21  74   9  836
1477468170.226:   -150  74   9  836
1477468170.227:   -318  74   9  836
1477468170.228:   -477  74   9  836
1477468170.243:   -599  74   9  836
1477468170.243:   -658  74   9  836
1477468170.244:   -659  74   9  836
1477468170.244:   -630  74   9  836
1477468170.245:   -600  74   9  836
1477468170.245:   -576  74   9  836
1477468170.245:   -552  74   9  836
1477468170.247:   -532  74   9  836
1477468170.248:   -531  74   9  836
1477468170.248:   -558  74   9  836
1477468170.250:   -601  74   9  836
1477468170.254:   -641  74   9  836
1477468170.262:   -670  74   9  836
1477468170.263:   -693  74   9  836
1477468170.263:   -716  74   9  836
1477468170.264:   -732  74   9  836
1477468170.264:   -724  74   9  836
1477468170.264:   -690  74   9  836
1477468170.268:   -645  74   9  836
1477468170.274:   -605  74   9  836
1477468170.284:   -579  74   9  836
1477468170.284:   -564  74   9  836
1477468170.284:   -559  74   9  836
1477468170.284:   -565  74   9  836
1477468170.285:   -577  74   9  836
1477468170.285:   -586  74   9  836
1477468170.285:   -579  74   9  836
1477468170.316:   -559  74   9  836
1477468170.316:   -540  74   9  836
1477468170.317:   -533  74   9  836
1477468170.317:   -534  74   9  836
1477468170.317:   -525  74   9  836
1477468170.318:   -506  74   9  836
1477468170.318:   -489  74   9  836
1477468170.320:   -486  74   9  836
1477468170.321:   -494  74   9  836
1477468170.324:   -493  74   9  836
1477468170.325:   -476  74   9  836
1477468170.329:   -450  74   9  836
1477468170.329:   -427  74   9  836
1477468170.330:   -415  74   9  836
1477468170.331:   -413  74   9  836
1477468170.331:   -417  74   9  836
1477468170.332:   -423  74   9  836
1477468170.332:   -422  74   9  836
1477468170.333:   -409  70   9  840
1477468170.333:   -399  70   9  840
1477468170.333:   -409  70   9  840
1477468170.333:   -437  70   9  840
1477468170.333:   -459  70   9  840
1477468170.334:   -447  70   9  840
1477468170.334:   -394  70   9  840
1477468170.334:   -292  70   9  840
1477468170.336:   -133  70   9  840
1477468170.337:     84  70   9  840
1477468170.338:    328  70   9  840
1477468170.354:    553  70   9  840
1477468170.355:    743  70   9  840
1477468170.355:    920  70   9  840
1477468170.355:   1097  70   9  840
1477468170.355:   1229  70   9  840
1477468170.355:   1237  70   9  840
1477468170.355:   1083  70   9  840
1477468170.356:    822  70   9  840
1477468170.356:    556  70   9  840
1477468170.357:    340  70   9  840
1477468170.360:    147  70   9  840
1477468170.364:    -98  70   9  840
1477468170.364:   -424  70   9  840
1477468170.366:   -767  70   9  840
1477468170.367:  -1021  70   9  840
1477468170.368:  -1141  70   9  840
1477468170.379:  -1185  70   9  840
1477468170.379:  -1257  70   9  840
1477468170.379:  -1396  70   9  840
1477468170.379:  -1537  70   9  840
1477468170.380:  -1601  70   9  840
1477468170.381:  -1596  70   9  840
1477468170.382:  -1611  70   9  840
1477468170.388:  -1702  70   9  840
1477468170.397:  -1815  70   9  840
1477468170.398:  -1859  70   9  840
1477468170.398:  -1823  70   9  840
1477468170.398:  -1784  70   9  840
1477468170.398:  -1797  70   9  840
1477468170.398:  -1812  70   9  840
1477468170.401:  -1738  70   9  840
1477468170.402:  -1560  70   9  840
1477468170.406:  -1360  70   9  840
1477468170.408:  -1218  70   9  840
1477468170.411:  -1130  70   9  840
1477468170.411:  -1038  70   9  840
1477468170.413:   -919  70   9  840
1477468170.413:   -810  70   9  840
1477468170.414:   -756  70   9  840
1477468170.419:   -756  70   9  840
1477468170.426:   -779  70   9  840
1477468170.426:   -808  70   9  840
1477468170.427:   -846  70   9  840
1477468170.428:   -885  70   9  840
1477468170.430:   -905  70   9  840
1477468170.430:   -892  70   9  840
1477468170.434:   -854  70   9  840
1477468170.434:   -819  70   9  840
1477468170.454:   -803  70   9  840
1477468170.454:   -802  70   9  840
1477468170.454:   -804  70   9  840
1477468170.455:   -801  70   9  840
1477468170.455:   -799  70   9  840
1477468170.455:   -802  70   9  840
1477468170.455:   -805  70   9  840
1477468170.455:   -798  70   9  840
1477468170.456:   -781  70   9  840
1477468170.456:   -766  70   9  840
1477468170.456:   -761  70   9  840
1477468170.456:   -764  70   9  840
1477468170.464:   -762  70   9  840
1477468170.464:   -751  70   9  840
1477468170.465:   -740  70   9  840
1477468170.466:   -741  70   9  840
1477468170.473:   -756  70   9  840
1477468170.474:   -770  70   9  840
1477468170.474:   -769  70   9  840
1477468170.474:   -753  70   9  840
1477468170.475:   -738  70   9  840
1477468170.475:   -733  70   9  840
1477468170.477:   -733  70   9  840
1477468170.478:   -726  70   9  840
1477468170.481:   -708  70   9  840
1477468170.483:   -690  70   9  840
1477468170.500:   -682  70   9  840
1477468170.501:   -682  70   9  840
1477468170.502:   -678  70   9  840
1477468170.502:   -666  70   9  840
1477468170.502:   -653  70   9  840
1477468170.502:   -652  70   9  840
1477468170.503:   -665  70   9  840
1477468170.503:   -680  70   9  840
1477468170.504:   -683  70   9  840
1477468170.505:   -669  70   9  840
1477468170.506:   -649  70   9  840
1477468170.506:   -632  70   9  840
1477468170.509:   -622  70   9  840
1477468170.510:   -613  70   9  840
1477468170.520:   -600  70   9  840
1477468170.521:   -582  70   9  840
1477468170.521:   -565  70   9  840
1477468170.521:   -554  70   9  840
1477468170.521:   -552  70   9  840
1477468170.522:   -557  70   9  840
1477468170.525:   -564  70   9  840
1477468170.530:   -564  70   9  840
1477468170.539:   -554  70   9  840
1477468170.539:   -542  70   9  840
1477468170.540:   -540  70   9  840
1477468170.540:   -552  70   9  840
1477468170.540:   -568  70   9  840
1477468170.541:   -573  70   9  840
1477468170.541:   -561  70   9  840
1477468170.542:   -544  70   9  840
1477468170.544:   -538  70   9  840
1477468170.548:   -544  70   9  840
1477468170.548:   -547  70   9  840
1477468170.549:   -535  70   9  840
1477468170.551:   -510  70   9  840
1477468170.553:   -487  70   9  840
1477468170.563:   -476  70   9  840
1477468170.563:   -472  70   9  840
1477468170.564:   -463  70   9  840
1477468170.565:   -448  70   9  840
1477468170.565:   -436  70   9  840
1477468170.566:   -431  70   9  840
1477468170.570:   -429  70   9  840
1477468170.571:   -422  70   9  840
1477468170.583:   -414  70   9  840
1477468170.584:   -411  70   9  840
1477468170.585:   -414  70   9  840
1477468170.586:   -410  70   9  840
1477468170.586:   -395  70   9  840
1477468170.587:   -376  70   9  840
1477468170.588:   -364  70   9  840
1477468170.588:   -361  70   9  840
1477468170.589:   -356  70   9  840
1477468170.589:   -338  70   9  840
1477468170.591:   -314  70   9  840
1477468170.592:   -295  70   9  840
1477468170.603:   -288  70   9  840
1477468170.603:   -283  70   9  840
1477468170.604:   -270  70   9  840
1477468170.605:   -251  70   9  840
1477468170.606:   -235  70   9  840
1477468170.606:   -228  70   9  840
1477468170.607:   -224  70   9  840
1477468170.608:   -217  70   9  840
1477468170.611:   -208  70   9  840
1477468170.612:   -202  70   9  840
1477468170.617:   -200  70   9  840
1477468170.617:   -196  70   9  840
1477468170.619:   -186  70   9  840
1477468170.621:   -173  70   9  840
1477468170.622:   -166  70   9  840
1477468170.625:   -166  70   9  840
1477468170.649:   -168  70   9  840
1477468170.715:   -163  70   9  840
1477468170.718:   -151  70   9  840
1477468170.718:   -138  70   9  840
1477468170.718:   -129  70   9  840
1477468170.718:   -123  70   9  840
1477468170.718:   -117  70   9  840
1477468170.718:   -112  70   9  840
1477468170.719:   -106  70   9  840
1477468170.719:    -98  70   9  840
1477468170.719:    -84  70   9  840
1477468170.719:    -67  70   9  840
1477468170.719:    -58  70   9  840
1477468170.719:    -64  70   9  840
1477468170.719:    -80  70   9  840
1477468170.719:    -94  70   9  840
1477468170.720:    -95  70   9  840
1477468170.720:    -88  70   9  840
1477468170.720:    -85  70   9  840
1477468170.720:    -94  70   9  840
1477468170.720:   -111  70   9  840
1477468170.721:   -125  70   9  840
1477468170.721:   -129  70   9  840
1477468170.721:   -124  70   9  840
1477468170.721:   -119  70   9  840
1477468170.721:   -121  70   9  840
1477468170.722:   -130  70   9  840
1477468170.722:   -144  70   9  840
1477468170.722:   -158  70   9  840
1477468170.722:   -169  70   9  840
1477468170.722:   -175  70   9  840
1477468170.722:   -175  70   9  840
1477468170.722:   -175  70   9  840
1477468170.723:   -183  70   9  840
1477468170.723:   -204  70   9  840
1477468170.723:   -230  70   9  840
1477468170.723:   -252  70   9  840
1477468170.723:   -262  70   9  840
1477468170.724:   -269  70   9  840
1477468170.724:   -281  70   9  840
1477468170.725:   -297  70   9  840
1477468170.725:   -310  70   9  840
1477468170.725:   -311  70   9  840
1477468170.725:   -305  70   9  840
1477468170.725:   -301  70   9  840
1477468170.725:   -306  70   9  840
1477468170.727:   -315  70   9  840
1477468170.727:   -319  70   9  840
1477468170.727:   -316  70   9  840
1477468170.727:   -313  70   9  840
1477468170.728:   -318  70   9  840
1477468170.728:   -330  70   9  840
1477468170.729:   -341  70   9  840
1477468170.730:   -347  70   9  840
1477468170.732:   -350  70   9  840
1477468170.737:   -357  70   9  840
1477468170.738:   -370  70   9  840
1477468170.741:   -382  70   9  840
1477468170.742:   -387  70   9  840
1477468170.742:   -382  70   9  840
1477468170.744:   -376  70   9  840
1477468170.746:   -372  70   9  840
1477468170.767:   -370  70   9  840
1477468170.767:   -365  70   9  840
1477468170.767:   -356  70   9  840
1477468170.767:   -346  70   9  840
1477468170.768:   -340  70   9  840
1477468170.769:   -342  70   9  840
1477468170.770:   -347  70   9  840
1477468170.770:   -352  70   9  840
1477468170.771:   -355  70   9  840
1477468170.771:   -360  70   9  840
1477468170.772:   -370  70   9  840
1477468170.772:   -382  70   9  840
1477468170.772:   -391  70   9  840
1477468170.775:   -392  70   9  840
1477468170.776:   -388  70   9  840
1477468170.778:   -385  70   9  840
1477468170.781:   -386  70   9  840
1477468170.782:   -386  70   9  840
1477468170.794:   -381  70   9  840
1477468170.795:   -373  70   9  840
1477468170.796:   -366  70   9  840
1477468170.796:   -363  70   9  840
1477468170.797:   -366  70   9  840
1477468170.798:   -370  70   9  840
1477468170.799:   -373  70   9  840
1477468170.800:   -371  70   9  840
1477468170.801:   -362  70   9  840
1477468170.804:   -351  70   9  840
1477468170.804:   -341  70   9  840
1477468170.806:   -338  70   9  840
1477468170.809:   -336  70   9  840
1477468170.810:   -333  70   9  840
1477468170.811:   -330  70   9  840
1477468170.814:   -333  70   9  840
1477468170.845:   -346  70   9  840
1477468170.846:   -364  70   9  840
1477468170.847:   -379  70   9  840
1477468170.847:   -384  70   9  840
1477468170.848:   -382  70   9  840
1477468170.849:   -379  70   9  840
1477468170.850:   -378  70   9  840
1477468170.854:   -381  70   9  840
1477468170.854:   -384  70   9  840
1477468170.854:   -382  70   9  840
1477468170.867:   -370  70   9  840
1477468170.870:   -352  70   9  840
1477468170.870:   -339  70   9  840
1477468170.870:   -339  70   9  840
1477468170.871:   -346  70   9  840
1477468170.871:   -343  70   9  840
1477468170.871:   -324  70   9  840
1477468170.871:   -298  70   9  840
1477468170.872:   -283  70   9  840
1477468170.872:   -285  70   9  840
1477468170.872:   -293  70   9  840
1477468170.873:   -293  70   9  840
1477468170.873:   -283  70   9  840
1477468170.873:   -274  70   9  840
1477468170.874:   -273  70   9  840
1477468170.874:   -276  70   9  840
1477468170.874:   -273  70   9  840
1477468170.874:   -263  70   9  840
1477468170.875:   -254  70   9  840
1477468170.875:   -251  70   9  840
1477468170.886:   -250  70   9  840
1477468170.886:   -246  70   9  840
1477468170.887:   -240  70   9  840
1477468170.887:   -238  70   9  840
1477468170.887:   -243  70   9  840
1477468170.887:   -250  70   9  840
1477468170.888:   -253  70   9  840
1477468170.892:   -251  70   9  840
1477468170.893:   -249  70   9  840
1477468170.895:   -249  70   9  840
1477468170.904:   -248  70   9  840
1477468170.904:   -241  70   9  840
1477468170.904:   -230  70   9  840
1477468170.904:   -224  70   9  840
1477468170.905:   -230  70   9  840
1477468170.905:   -244  70   9  840
1477468170.905:   -255  70   9  840
1477468170.909:   -256  70   9  840
1477468170.910:   -253  70   9  840
1477468170.911:   -254  70   9  840
1477468170.913:   -262  70   9  840
1477468170.915:   -271  70   9  840
1477468170.917:   -274  70   9  840
1477468170.919:   -270  70   9  840
1477468170.923:   -263  70   9  840
1477468170.923:   -257  70   9  840
1477468170.935:   -250  70   9  840
1477468170.935:   -242  70   9  840
1477468170.935:   -234  70   9  840
1477468170.936:   -230  70   9  840
1477468170.936:   -227  70   9  840
1477468170.936:   -219  70   9  840
1477468170.938:   -207  70   9  840
1477468170.938:   -196  70   9  840
1477468170.940:   -194  70   9  840
1477468170.945:   -198  70   9  840
1477468170.955:   -201  70   9  840
1477468170.955:   -198  70   9  840
1477468170.956:   -191  70   9  840
1477468170.956:   -185  70   9  840
1477468170.956:   -186  70   9  840
1477468170.956:   -192  70   9  840
1477468170.961:   -199  70   9  840
1477468170.961:   -208  70   9  840
1477468170.962:   -214  70   9  840
1477468170.964:   -218  70   9  840
1477468170.965:   -219  70   9  840
1477468170.971:   -218  70   9  840
1477468170.971:   -220  70   9  840
1477468170.972:   -223  70   9  840
1477468170.975:   -226  70   9  840
1477468170.978:   -228  70   9  840
1477468170.980:   -228  70   9  840
1477468170.980:   -229  70   9  840
1477468171.004:   -233  70   9  840
1477468171.004:   -238  70   9  840
1477468171.005:   -240  70   9  840
1477468171.005:   -236  70   9  840
1477468171.005:   -228  70   9  840
1477468171.005:   -218  70   9  840
1477468171.005:   -211  70   9  840
1477468171.005:   -208  70   9  840
1477468171.006:   -207  70   9  840
1477468171.006:   -201  70   9  840
1477468171.006:   -192  70   9  840
1477468171.006:   -186  70   9  840
1477468171.006:   -187  70   9  840
1477468171.006:   -192  70   9  840
1477468171.011:   -191  70   9  840
1477468171.011:   -182  70   9  840
1477468171.015:   -173  70   9  840
1477468171.015:   -171  70   9  840
1477468171.017:   -175  70   9  840
1477468171.019:   -173  70   9  840
1477468171.020:   -164  70   9  840
1477468171.024:   -157  70   9  840
1477468171.025:   -159  70   9  840
1477468171.028:   -151  70   9  840
1477468171.029:   -105  70   9  840
1477468171.030:    -11  70   9  840
1477468171.044:    103  70   9  840
1477468171.045:    201  70   9  840
1477468171.045:    283  70   9  840
1477468171.046:    380  70   9  840
1477468171.046:    509  70   9  840
1477468171.046:    643  70   9  840
1477468171.047:    731  70   9  840
1477468171.048:    754  70   9  840
1477468171.050:    752  70   9  840
1477468171.050:    774  70   9  840
1477468171.052:    828  70   9  840
1477468171.056:    873  70   9  840
1477468171.063:    878  70   9  840
1477468171.064:    862  70   9  840
1477468171.064:    868  70   9  840
1477468171.064:    913  70   9  840
1477468171.066:    956  70   9  840
1477468171.066:    933  70   9  840
1477468171.070:    819  70   9  840
1477468171.070:    638  70   9  840
1477468171.080:    442  70   9  840
1477468171.081:    259  70   9  840
1477468171.082:     89  70   9  840
1477468171.082:    -78  70   9  840
1477468171.083:   -238  70   9  840
1477468171.083:   -366  70   9  840
1477468171.083:   -439  70   9  840
1477468171.086:   -450  70   9  840
1477468171.088:   -413  70   9  840
1477468171.090:   -350  70   9  840
1477468171.097:   -285  70   9  840
1477468171.098:   -236  70   9  840
1477468171.099:   -214  70   9  840
1477468171.100:   -219  70   9  840
1477468171.100:   -242  70   9  840
1477468171.103:   -273  70   9  840
1477468171.104:   -302  70   9  840
1477468171.106:   -326  70   9  840
1477468171.114:   -344  70   9  840
1477468171.115:   -355  70   9  840
1477468171.116:   -355  70   9  840
1477468171.117:   -341  70   9  840
1477468171.117:   -314  70   9  840
1477468171.118:   -276  70   9  840
1477468171.120:   -241  70   9  840
1477468171.120:   -217  70   9  840
1477468171.131:   -209  70   9  840
1477468171.131:   -210  70   9  840
1477468171.131:   -212  70   9  840
1477468171.132:   -212  70   9  840
1477468171.132:   -214  70   9  840
1477468171.132:   -220  70   9  840
1477468171.134:   -226  70   9  840
1477468171.139:   -226  70   9  840
1477468171.139:   -222  70   9  840
1477468171.140:   -220  70   9  840
1477468171.142:   -223  70   9  840
1477468171.143:   -226  70   9  840
1477468171.145:   -220  70   9  840
1477468171.148:   -205  70   9  840
1477468171.152:   -187  70   9  840
1477468171.153:   -173  70   9  840
1477468171.165:   -159  70   9  840
1477468171.165:   -143  70   9  840
1477468171.166:   -129  70   9  840
1477468171.166:   -122  70   9  840
1477468171.166:   -125  70   9  840
1477468171.166:   -135  70   9  840
1477468171.166:   -145  70   9  840
1477468171.168:   -154  70   9  840
1477468171.170:   -160  70   9  840
1477468171.171:   -154  70   9  840
1477468171.173:   -129  70   9  840
1477468171.175:    -90  70   9  840
1477468171.185:    -37  70   9  840
1477468171.186:     54  70   9  840
1477468171.186:    218  70   9  840
1477468171.186:    462  70   9  840
1477468171.186:    736  70   9  840
1477468171.186:    979  70   9  840
1477468171.189:   1172  70   9  840
1477468171.193:   1351  70   9  840
1477468171.193:   1536  70   9  840
1477468171.195:   1674  70   9  840
1477468171.206:   1675  70   9  840
1477468171.206:   1502  70   9  840
1477468171.206:   1227  70   9  840
1477468171.206:    961  70   9  840
1477468171.207:    749  70   9  840
1477468171.207:    532  70   9  840
1477468171.209:    217  70   9  840
1477468171.210:   -200  70   9  840
1477468171.211:   -604  70   9  840
1477468171.214:   -865  70   9  840
1477468171.216:   -956  70   9  840
1477468171.220:   -986  70   9  840
1477468171.222:  -1082  70   9  840
1477468171.223:  -1262  70   9  840
1477468171.225:  -1431  70   9  840
1477468171.226:  -1494  70   9  840
1477468171.228:  -1473  70   9  840
1477468171.230:  -1472  70   9  840
1477468171.273:  -1555  70   9  840
1477468171.274:  -1671  70   9  840
1477468171.274:  -1731  70   9  840
1477468171.275:  -1710  70   9  840
1477468171.276:  -1656  70   9  840
1477468171.276:  -1604  70   9  840
1477468171.278:  -1521  70   9  840
1477468171.278:  -1365  70   9  840
1477468171.279:  -1147  70   9  840
1477468171.280:   -936  70   9  840
1477468171.280:   -783  70   9  840
1477468171.281:   -675  70   9  840
1477468171.281:   -571  70   9  840
1477468171.282:   -467  70   9  840
1477468171.283:   -390  70   9  840
1477468171.283:   -370  70   9  840
1477468171.283:   -396  70   9  840
1477468171.284:   -444  70   9  840
1477468171.284:   -491  70   9  840
1477468171.284:   -525  70   9  840
1477468171.290:   -537  70   9  840
1477468171.290:   -521  70   9  840
1477468171.290:   -484  70   9  840
1477468171.291:   -445  70   9  840
1477468171.291:   -419  70   9  840
1477468171.291:   -411  70   9  840
1477468171.291:   -412  70   9  840
1477468171.292:   -416  70   9  840
1477468171.320:   -417  70   9  840
1477468171.320:   -415  70   9  840
1477468171.321:   -411  70   9  840
1477468171.322:   -409  70   9  840
1477468171.322:   -406  70   9  840
1477468171.323:   -396  70   9  840
1477468171.323:   -374  70   9  840
1477468171.323:   -351  70   9  840
1477468171.324:   -338  70   9  840
1477468171.324:   -337  67   9  861
1477468171.324:   -339  67   9  861
1477468171.330:   -335  67   9  861
1477468171.339:   -326  67   9  861
1477468171.339:   -318  67   9  861
1477468171.339:   -312  67   9  861
1477468171.339:   -306  67   9  861
1477468171.340:   -300  67   9  861
1477468171.340:   -297  67   9  861
1477468171.340:   -298  67   9  861
1477468171.340:   -298  67   9  861
1477468171.340:   -293  67   9  861
1477468171.340:   -287  67   9  861
1477468171.340:   -293  67   9  861
1477468171.341:   -310  67   9  861
1477468171.341:   -326  67   9  861
1477468171.341:   -329  67   9  861
1477468171.341:   -321  67   9  861
1477468171.341:   -314  67   9  861
1477468171.341:   -314  67   9  861
1477468171.343:   -313  67   9  861
1477468171.345:   -301  67   9  861
1477468171.353:   -280  67   9  861
1477468171.355:   -262  67   9  861
1477468171.355:   -252  67   9  861
1477468171.355:   -247  67   9  861
1477468171.355:   -239  67   9  861
1477468171.359:   -228  67   9  861
1477468171.363:   -223  67   9  861
1477468171.363:   -226  67   9  861
1477468171.364:   -232  67   9  861
1477468171.366:   -235  67   9  861
1477468171.367:   -233  67   9  861
1477468171.371:   -230  67   9  861
1477468171.371:   -227  67   9  861
1477468171.386:   -223  67   9  861
1477468171.387:   -218  67   9  861
1477468171.388:   -215  67   9  861
1477468171.389:   -214  67   9  861
1477468171.390:   -210  67   9  861
1477468171.390:   -199  67   9  861
1477468171.391:   -185  67   9  861
1477468171.391:   -172  67   9  861
1477468171.393:   -163  67   9  861
1477468171.394:   -157  67   9  861
1477468171.405:   -150  67   9  861
1477468171.406:   -142  67   9  861
1477468171.407:   -132  67   9  861
1477468171.408:   -124  67   9  861
1477468171.410:   -118  67   9  861
1477468171.411:   -116  67   9  861
1477468171.413:   -118  67   9  861
1477468171.414:   -121  67   9  861
1477468171.415:   -121  67   9  861
1477468171.415:   -110  67   9  861
1477468171.416:    -92  67   9  861
1477468171.416:    -77  67   9  861
1477468171.418:    -74  67   9  861
1477468171.419:    -76  67   9  861
1477468171.421:    -68  67   9  861
1477468171.422:    -46  67   9  861
1477468171.438:    -18  67   9  861
1477468171.438:     -1  67   9  861
1477468171.438:      4  67   9  861
1477468171.439:     11  67   9  861
1477468171.439:     29  67   9  861
1477468171.439:     53  67   9  861
1477468171.440:     69  67   9  861
1477468171.440:     75  67   9  861
1477468171.440:     80  67   9  861
1477468171.441:     96  67   9  861
1477468171.446:    118  67   9  861
1477468171.446:    132  67   9  861
1477468171.455:    137  67   9  861
1477468171.457:    142  67   9  861
1477468171.457:    156  67   9  861
1477468171.457:    177  67   9  861
1477468171.457:    190  67   9  861
1477468171.460:    189  67   9  861
1477468171.463:    183  67   9  861
1477468171.464:    187  67   9  861
1477468171.465:    201  67   9  861
1477468171.465:    214  67   9  861
1477468171.491:    213  67   9  861
1477468171.493:    201  67   9  861
1477468171.494:    192  67   9  861
1477468171.494:    192  67   9  861
1477468171.494:    197  67   9  861
1477468171.494:    195  67   9  861
1477468171.494:    185  67   9  861
1477468171.494:    177  67   9  861
1477468171.495:    179  67   9  861
1477468171.495:    189  67   9  861
1477468171.495:    198  67   9  861
1477468171.495:    198  67   9  861
1477468171.495:    195  67   9  861
1477468171.495:    194  67   9  861
1477468171.496:    196  67   9  861
1477468171.496:    195  67   9  861
1477468171.500:    190  67   9  861
1477468171.501:    184  67   9  861
1477468171.503:    179  67   9  861
1477468171.504:    175  67   9  861
1477468171.512:    172  67   9  861
1477468171.513:    172  67   9  861
1477468171.515:    175  67   9  861
1477468171.516:    179  67   9  861
1477468171.517:    177  67   9  861
1477468171.518:    166  67   9  861
1477468171.519:    149  67   9  861
1477468171.520:    133  67   9  861
1477468171.522:    120  67   9  861
1477468171.523:    108  67   9  861
1477468171.532:     93  67   9  861
1477468171.534:     75  67   9  861
1477468171.539:     54  67   9  861
1477468171.540:     35  67   9  861
1477468171.551:     20  67   9  861
1477468171.552:      6  67   9  861
1477468171.553:    -11  67   9  861
1477468171.553:    -31  67   9  861
1477468171.554:    -52  67   9  861
1477468171.555:    -70  67   9  861
1477468171.556:    -87  67   9  861
1477468171.557:   -103  67   9  861
1477468171.558:   -118  67   9  861
1477468171.559:   -129  67   9  861
1477468171.570:   -139  67   9  861
1477468171.571:   -152  67   9  861
1477468171.571:   -170  67   9  861
1477468171.571:   -189  67   9  861
1477468171.571:   -205  67   9  861
1477468171.572:   -219  67   9  861
1477468171.572:   -234  67   9  861
1477468171.572:   -252  67   9  861
1477468171.572:   -267  67   9  861
1477468171.572:   -277  67   9  861
1477468171.573:   -283  67   9  861
1477468171.575:   -290  67   9  861
1477468171.578:   -297  67   9  861
1477468171.578:   -295  67   9  861
1477468171.582:   -284  67   9  861
1477468171.585:   -274  67   9  861
1477468171.587:   -275  67   9  861
1477468171.588:   -284  67   9  861
1477468171.588:   -289  67   9  861
1477468171.590:   -284  67   9  861
1477468171.597:   -277  67   9  861
1477468171.598:   -277  67   9  861
1477468171.599:   -288  67   9  861
1477468171.599:   -299  67   9  861
1477468171.601:   -300  67   9  861
1477468171.602:   -295  67   9  861
1477468171.623:   -293  67   9  861
1477468171.624:   -297  67   9  861
1477468171.685:   -302  67   9  861
1477468171.686:   -300  67   9  861
1477468171.687:   -292  67   9  861
1477468171.687:   -288  67   9  861
1477468171.687:   -290  67   9  861
1477468171.687:   -291  67   9  861
1477468171.688:   -284  67   9  861
1477468171.688:   -270  67   9  861
1477468171.688:   -260  67   9  861
1477468171.688:   -258  67   9  861
1477468171.688:   -259  67   9  861
1477468171.689:   -256  67   9  861
1477468171.689:   -248  67   9  861
1477468171.689:   -237  67   9  861
1477468171.689:   -232  67   9  861
1477468171.689:   -233  67   9  861
1477468171.690:   -240  67   9  861
1477468171.690:   -245  67   9  861
1477468171.727:   -247  67   9  861
1477468171.728:   -246  67   9  861
1477468171.728:   -244  67   9  861
1477468171.729:   -245  67   9  861
1477468171.729:   -244  67   9  861
1477468171.729:   -236  67   9  861
1477468171.730:   -218  67   9  861
1477468171.730:   -201  67   9  861
1477468171.730:   -193  67   9  861
1477468171.731:   -193  67   9  861
1477468171.731:   -193  67   9  861
1477468171.732:   -187  67   9  861
1477468171.732:   -180  67   9  861
1477468171.732:   -183  67   9  861
1477468171.732:   -195  67   9  861
1477468171.733:   -204  67   9  861
1477468171.733:   -205  67   9  861
1477468171.733:   -202  67   9  861
1477468171.733:   -205  67   9  861
1477468171.734:   -215  67   9  861
1477468171.734:   -224  67   9  861
1477468171.734:   -224  67   9  861
1477468171.734:   -217  67   9  861
1477468171.735:   -213  67   9  861
1477468171.735:   -217  67   9  861
1477468171.735:   -226  67   9  861
1477468171.736:   -238  67   9  861
1477468171.736:   -250  67   9  861
1477468171.736:   -260  67   9  861
1477468171.737:   -266  67   9  861
1477468171.737:   -266  67   9  861
1477468171.737:   -264  67   9  861
1477468171.737:   -264  67   9  861
1477468171.738:   -267  67   9  861
1477468171.738:   -269  67   9  861
1477468171.738:   -268  67   9  861
1477468171.738:   -264  67   9  861
1477468171.739:   -262  67   9  861
1477468171.756:   -267  67   9  861
1477468171.756:   -276  67   9  861
1477468171.756:   -285  67   9  861
1477468171.756:   -290  67   9  861
1477468171.757:   -288  67   9  861
1477468171.757:   -283  67   9  861
1477468171.757:   -279  67   9  861
1477468171.757:   -279  67   9  861
1477468171.757:   -282  67   9  861
1477468171.757:   -286  67   9  861
1477468171.758:   -288  67   9  861
1477468171.762:   -290  67   9  861
1477468171.762:   -290  67   9  861
1477468171.762:   -291  67   9  861
1477468171.762:   -292  67   9  861
1477468171.763:   -294  67   9  861
1477468171.763:   -300  67   9  861
1477468171.763:   -307  67   9  861
1477468171.763:   -313  67   9  861
1477468171.763:   -314  67   9  861
1477468171.763:   -309  67   9  861
1477468171.763:   -301  67   9  861
1477468171.763:   -292  67   9  861
1477468171.764:   -283  67   9  861
1477468171.766:   -276  67   9  861
1477468171.767:   -267  67   9  861
1477468171.768:   -257  67   9  861
1477468171.774:   -247  67   9  861
1477468171.782:   -241  67   9  861
1477468171.782:   -244  67   9  861
1477468171.783:   -254  67   9  861
1477468171.783:   -263  67   9  861
1477468171.783:   -264  67   9  861
1477468171.783:   -260  67   9  861
1477468171.787:   -255  67   9  861
1477468171.788:   -256  67   9  861
1477468171.789:   -258  67   9  861
1477468171.791:   -256  67   9  861
1477468171.793:   -249  67   9  861
1477468171.794:   -242  67   9  861
1477468171.802:   -240  67   9  861
1477468171.802:   -243  67   9  861
1477468171.802:   -245  67   9  861
1477468171.802:   -246  67   9  861
1477468171.807:   -245  67   9  861
1477468171.807:   -248  67   9  861
1477468171.810:   -254  67   9  861
1477468171.810:   -260  67   9  861
1477468171.819:   -267  67   9  861
1477468171.819:   -275  67   9  861
1477468171.821:   -285  67   9  861
1477468171.821:   -293  67   9  861
1477468171.823:   -296  67   9  861
1477468171.823:   -298  67   9  861
1477468171.825:   -301  67   9  861
1477468171.826:   -304  67   9  861
1477468171.828:   -299  67   9  861
1477468171.830:   -284  67   9  861
1477468171.836:   -265  67   9  861
1477468171.836:   -257  67   9  861
1477468171.837:   -260  67   9  861
1477468171.840:   -262  67   9  861
1477468171.843:   -252  67   9  861
1477468171.843:   -235  67   9  861
1477468171.845:   -227  67   9  861
1477468171.846:   -234  67   9  861
1477468171.863:   -242  67   9  861
1477468171.864:   -232  67   9  861
1477468171.865:   -208  67   9  861
1477468171.866:   -194  67   9  861
1477468171.866:   -199  67   9  861
1477468171.867:   -204  67   9  861
1477468171.867:   -168  67   9  861
1477468171.868:    -78  67   9  861
1477468171.869:     38  67   9  861
1477468171.869:    137  67   9  861
1477468171.871:    214  67   9  861
1477468171.872:    301  67   9  861
1477468171.874:    424  67   9  861
1477468171.875:    566  67   9  861
1477468171.876:    676  67   9  861
1477468171.882:    725  67   9  861
1477468171.894:    738  67   9  861
1477468171.894:    763  67   9  861
1477468171.894:    820  67   9  861
1477468171.894:    879  67   9  861
1477468171.894:    903  67   9  861
1477468171.895:    893  67   9  861
1477468171.895:    887  67   9  861
1477468171.895:    912  67   9  861
1477468171.896:    948  67   9  861
1477468171.898:    933  67   9  861
1477468171.899:    822  67   9  861
1477468171.902:    628  67   9  861
1477468171.903:    406  67   9  861
1477468171.909:    207  67   9  861
1477468171.909:     36  67   9  861
1477468171.911:   -127  67   9  861
1477468171.937:   -296  67   9  861
1477468171.938:   -449  67   9  861
1477468171.947:   -546  67   9  861
1477468171.948:   -565  67   9  861
1477468171.949:   -523  67   9  861
1477468171.950:   -457  67   9  861
1477468171.950:   -397  67   9  861
1477468171.951:   -350  67   9  861
1477468171.952:   -321  67   9  861
1477468171.952:   -313  67   9  861
1477468171.952:   -332  67   9  861
1477468171.952:   -372  67   9  861
1477468171.953:   -414  67   9  861
1477468171.953:   -444  67   9  861
1477468171.953:   -464  67   9  861
1477468171.953:   -486  67   9  861
1477468171.954:   -506  67   9  861
1477468171.954:   -508  67   9  861
1477468171.964:   -480  67   9  861
1477468171.964:   -435  67   9  861
1477468171.965:   -394  67   9  861
1477468171.965:   -370  67   9  861
1477468171.965:   -360  67   9  861
1477468171.965:   -354  67   9  861
1477468171.966:   -351  67   9  861
1477468171.966:   -357  67   9  861
1477468171.967:   -367  67   9  861
1477468171.967:   -369  67   9  861
1477468171.968:   -360  67   9  861
1477468171.969:   -349  67   9  861
1477468171.970:   -348  67   9  861
1477468171.971:   -353  67   9  861
1477468171.974:   -351  67   9  861
1477468171.977:   -339  67   9  861
1477468171.981:   -324  67   9  861
1477468171.981:   -317  67   9  861
1477468171.982:   -315  67   9  861
1477468171.983:   -306  67   9  861
1477468171.985:   -284  67   9  861
1477468171.987:   -260  67   9  861
1477468171.990:   -249  67   9  861
1477468171.995:   -255  67   9  861
1477468172.005:   -264  67   9  861
1477468172.006:   -263  67   9  861
1477468172.006:   -254  67   9  861
1477468172.007:   -250  67   9  861
1477468172.007:   -260  67   9  861
1477468172.008:   -274  67   9  861
1477468172.011:   -271  67   9  861
1477468172.011:   -240  67   9  861
1477468172.013:   -188  67   9  861
1477468172.015:   -115  67   9  861
1477468172.024:      6  67   9  861
1477468172.024:    203  67   9  861
1477468172.024:    463  67   9  861
1477468172.025:    728  67   9  861
1477468172.025:    949  67   9  861
1477468172.025:   1131  67   9  861
1477468172.027:   1312  67   9  861
1477468172.030:   1487  67   9  861
1477468172.032:   1579  67   9  861
1477468172.033:   1512  67   9  861
1477468172.050:   1293  67   9  861
1477468172.052:   1018  67   9  861
1477468172.052:    779  67   9  861
1477468172.053:    577  67   9  861
1477468172.054:    338  67   9  861
1477468172.055:     -3  67   9  861
1477468172.055:   -408  67   9  861
1477468172.056:   -760  67   9  861
1477468172.057:   -961  67   9  861
1477468172.057:  -1028  67   9  861
1477468172.058:  -1074  67   9  861
1477468172.058:  -1195  67   9  861
1477468172.059:  -1375  67   9  861
1477468172.061:  -1516  67   9  861
1477468172.063:  -1551  67   9  861
1477468172.063:  -1530  67   9  861
1477468172.065:  -1551  67   9  861
1477468172.066:  -1645  67   9  861
1477468172.077:  -1743  67   9  861
1477468172.078:  -1765  67   9  861
1477468172.079:  -1714  67   9  861
1477468172.079:  -1652  67   9  861
1477468172.080:  -1601  67   9  861
1477468172.080:  -1512  67   9  861
1477468172.081:  -1338  67   9  861
1477468172.085:  -1106  67   9  861
1477468172.124:   -899  67   9  861
1477468172.124:   -763  67   9  861
1477468172.125:   -667  67   9  861
1477468172.125:   -562  67   9  861
1477468172.126:   -450  67   9  861
1477468172.126:   -376  67   9  861
1477468172.126:   -371  67   9  861
1477468172.126:   -417  67   9  861
1477468172.127:   -473  67   9  861
1477468172.127:   -512  67   9  861
1477468172.127:   -529  67   9  861
1477468172.127:   -528  67   9  861
1477468172.128:   -508  67   9  861
1477468172.128:   -474  67   9  861
1477468172.128:   -434  67   9  861
1477468172.128:   -402  67   9  861
1477468172.129:   -381  67   9  861
1477468172.129:   -372  67   9  861
1477468172.129:   -376  67   9  861
1477468172.129:   -391  67   9  861
1477468172.129:   -412  67   9  861
1477468172.130:   -424  67   9  861
1477468172.130:   -418  67   9  861
1477468172.132:   -395  67   9  861
1477468172.133:   -373  67   9  861
1477468172.134:   -366  67   9  861
1477468172.135:   -372  67   9  861
1477468172.136:   -377  67   9  861
1477468172.149:   -369  67   9  861
1477468172.149:   -349  67   9  861
1477468172.149:   -333  67   9  861
1477468172.149:   -328  67   9  861
1477468172.149:   -333  67   9  861
1477468172.150:   -334  68   9  841
1477468172.150:   -326  68   9  841
1477468172.154:   -311  68   9  841
1477468172.155:   -298  68   9  841
1477468172.159:   -295  68   9  841
1477468172.160:   -298  68   9  841
1477468172.161:   -301  68   9  841
1477468172.163:   -300  68   9  841
1477468172.164:   -298  68   9  841
1477468172.167:   -301  68   9  841
1477468172.169:   -307  68   9  841
1477468172.173:   -309  68   9  841
1477468172.173:   -302  68   9  841
1477468172.177:   -290  68   9  841
1477468172.177:   -283  68   9  841
1477468172.192:   -288  68   9  841
1477468172.192:   -302  68   9  841
1477468172.192:   -314  68   9  841
1477468172.192:   -312  68   9  841
1477468172.192:   -300  68   9  841
1477468172.192:   -287  68   9  841
1477468172.193:   -282  68   9  841
1477468172.193:   -286  68   9  841
1477468172.197:   -289  68   9  841
1477468172.198:   -282  68   9  841
1477468172.200:   -270  68   9  841
1477468172.201:   -260  68   9  841
1477468172.203:   -257  68   9  841
1477468172.205:   -256  68   9  841
1477468172.205:   -254  68   9  841
1477468172.208:   -252  68   9  841
1477468172.210:   -252  68   9  841
1477468172.214:   -257  68   9  841
1477468172.215:   -261  68   9  841
1477468172.217:   -261  68   9  841
1477468172.219:   -258  68   9  841
1477468172.220:   -254  68   9  841
1477468172.234:   -251  68   9  841
1477468172.234:   -245  68   9  841
1477468172.234:   -236  68   9  841
1477468172.235:   -223  68   9  841
1477468172.236:   -210  68   9  841
1477468172.236:   -197  68   9  841
1477468172.236:   -187  68   9  841
1477468172.238:   -182  68   9  841
1477468172.238:   -184  68   9  841
1477468172.242:   -189  68   9  841
1477468172.252:   -191  68   9  841
1477468172.252:   -189  68   9  841
1477468172.253:   -186  68   9  841
1477468172.254:   -184  68   9  841
1477468172.254:   -183  68   9  841
1477468172.255:   -177  68   9  841
1477468172.255:   -163  68   9  841
1477468172.256:   -146  68   9  841
1477468172.258:   -132  68   9  841
1477468172.259:   -123  68   9  841
1477468172.261:   -117  68   9  841
1477468172.263:   -110  68   9  841
1477468172.265:    -99  68   9  841
1477468172.266:    -85  68   9  841
1477468172.269:    -71  68   9  841
1477468172.271:    -61  68   9  841
1477468172.275:    -55  68   9  841
1477468172.276:    -48  68   9  841
1477468172.294:    -37  68   9  841
1477468172.295:    -21  68   9  841
1477468172.296:     -3  68   9  841
1477468172.297:     11  68   9  841
1477468172.297:     17  68   9  841
1477468172.301:     21  68   9  841
1477468172.302:     31  68   9  841
1477468172.303:     49  68   9  841
1477468172.303:     69  68   9  841
1477468172.326:     84  68   9  841
1477468172.337:     89  68   9  841
1477468172.338:     92  68   9  841
1477468172.339:     99  68   9  841
1477468172.339:    112  68   9  841
1477468172.340:    121  68   9  841
1477468172.341:    122  68   9  841
1477468172.342:    116  68   9  841
1477468172.342:    111  68   9  841
1477468172.343:    110  68   9  841
1477468172.343:    107  68   9  841
1477468172.344:    100  68   9  841
1477468172.345:     91  68   9  841
1477468172.345:     88  68   9  841
1477468172.346:     92  68   9  841
1477468172.358:     96  68   9  841
1477468172.359:     97  68   9  841
1477468172.360:     99  68   9  841
1477468172.361:    106  68   9  841
1477468172.362:    114  68   9  841
1477468172.362:    113  68   9  841
1477468172.364:    102  68   9  841
1477468172.364:     88  68   9  841
1477468172.365:     79  68   9  841
1477468172.366:     73  68   9  841
1477468172.366:     62  68   9  841
1477468172.367:     45  68   9  841
1477468172.368:     34  68   9  841
1477468172.368:     38  68   9  841
1477468172.369:     52  68   9  841
1477468172.369:     62  68   9  841
1477468172.370:     58  68   9  841
1477468172.371:     45  68   9  841
1477468172.372:     34  68   9  841
1477468172.373:     30  68   9  841
1477468172.373:     24  68   9  841
1477468172.374:      7  68   9  841
1477468172.375:    -24  68   9  841
1477468172.375:    -59  68   9  841
1477468172.376:    -87  68   9  841
1477468172.376:   -104  68   9  841
1477468172.377:   -115  68   9  841
1477468172.378:   -128  68   9  841
1477468172.378:   -146  68   9  841
1477468172.380:   -164  68   9  841
1477468172.385:   -174  68   9  841
1477468172.386:   -175  68   9  841
1477468172.403:   -176  68   9  841
1477468172.403:   -183  68   9  841
1477468172.403:   -193  68   9  841
1477468172.403:   -200  68   9  841
1477468172.403:   -203  68   9  841
1477468172.403:   -205  68   9  841
1477468172.404:   -214  68   9  841
1477468172.404:   -226  68   9  841
1477468172.404:   -236  68   9  841
1477468172.404:   -242  68   9  841
1477468172.406:   -247  68   9  841
1477468172.407:   -252  68   9  841
1477468172.411:   -256  68   9  841
1477468172.411:   -259  68   9  841
1477468172.413:   -265  68   9  841
1477468172.414:   -275  68   9  841
1477468172.417:   -286  68   9  841
1477468172.419:   -290  68   9  841
1477468172.428:   -287  68   9  841
1477468172.428:   -286  68   9  841
1477468172.428:   -291  68   9  841
1477468172.428:   -302  68   9  841
1477468172.428:   -312  68   9  841
1477468172.431:   -319  68   9  841
1477468172.433:   -325  68   9  841
1477468172.434:   -333  68   9  841
1477468172.439:   -341  68   9  841
1477468172.439:   -346  68   9  841
1477468172.449:   -347  68   9  841
1477468172.449:   -347  68   9  841
1477468172.449:   -347  68   9  841
1477468172.449:   -344  68   9  841
1477468172.449:   -339  68   9  841
1477468172.454:   -335  68   9  841
1477468172.525:   -332  68   9  841
1477468172.525:   -328  68   9  841
1477468172.525:   -322  68   9  841
1477468172.525:   -319  68   9  841
1477468172.525:   -321  68   9  841
1477468172.525:   -326  68   9  841
1477468172.526:   -328  68   9  841
1477468172.526:   -321  68   9  841
1477468172.526:   -312  68   9  841
1477468172.526:   -308  68   9  841
1477468172.526:   -315  68   9  841
1477468172.526:   -325  68   9  841
1477468172.527:   -330  68   9  841
1477468172.527:   -328  68   9  841
1477468172.527:   -324  68   9  841
1477468172.527:   -322  68   9  841
1477468172.527:   -323  68   9  841
1477468172.527:   -324  68   9  841
1477468172.528:   -324  68   9  841
1477468172.528:   -324  68   9  841
1477468172.528:   -324  68   9  841
1477468172.528:   -321  68   9  841
1477468172.528:   -314  68   9  841
1477468172.528:   -305  68   9  841
1477468172.528:   -301  68   9  841
1477468172.529:   -304  68   9  841
1477468172.529:   -310  68   9  841
1477468172.529:   -312  68   9  841
1477468172.529:   -305  68   9  841
1477468172.529:   -293  68   9  841
1477468172.529:   -282  68   9  841
1477468172.529:   -282  68   9  841
1477468172.530:   -291  68   9  841
1477468172.530:   -302  68   9  841
1477468172.530:   -302  68   9  841
1477468172.530:   -290  68   9  841
1477468172.530:   -275  68   9  841
1477468172.530:   -271  68   9  841
1477468172.530:   -278  68   9  841
1477468172.531:   -285  68   9  841
1477468172.535:   -280  68   9  841
1477468172.535:   -267  68   9  841
1477468172.535:   -256  68   9  841
1477468172.537:   -254  68   9  841
1477468172.540:   -256  68   9  841
1477468172.541:   -257  68   9  841
1477468172.542:   -257  68   9  841
1477468172.544:   -263  68   9  841
1477468172.556:   -276  68   9  841
1477468172.556:   -288  68   9  841
1477468172.556:   -292  68   9  841
1477468172.557:   -289  68   9  841
1477468172.557:   -292  68   9  841
1477468172.557:   -303  68   9  841
1477468172.562:   -316  68   9  841
1477468172.563:   -319  68   9  841
1477468172.575:   -311  68   9  841
1477468172.580:   -304  68   9  841
1477468172.581:   -307  68   9  841
1477468172.588:   -317  68   9  841
1477468172.595:   -324  68   9  841
1477468172.595:   -323  68   9  841
1477468172.595:   -319  68   9  841
1477468172.596:   -319  68   9  841
1477468172.596:   -324  68   9  841
1477468172.596:   -328  68   9  841
1477468172.596:   -329  68   9  841
1477468172.596:   -325  68   9  841
1477468172.596:   -322  68   9  841
1477468172.596:   -321  68   9  841
1477468172.596:   -319  68   9  841
1477468172.597:   -316  68   9  841
1477468172.597:   -314  68   9  841
1477468172.597:   -315  68   9  841
1477468172.597:   -318  68   9  841
1477468172.603:   -318  68   9  841
1477468172.603:   -314  68   9  841
1477468172.604:   -308  68   9  841
1477468172.606:   -305  68   9  841
1477468172.607:   -305  68   9  841
1477468172.613:   -305  68   9  841
1477468172.614:   -303  68   9  841
1477468172.615:   -302  68   9  841
1477468172.617:   -303  68   9  841
1477468172.639:   -307  68   9  841
1477468172.640:   -309  68   9  841
1477468172.640:   -307  68   9  841
1477468172.641:   -307  68   9  841
1477468172.644:   -310  68   9  841
1477468172.645:   -314  68   9  841
1477468172.646:   -315  68   9  841
1477468172.646:   -310  68   9  841
1477468172.647:   -303  68   9  841
1477468172.647:   -303  68   9  841
1477468172.648:   -310  68   9  841
1477468172.649:   -317  68   9  841
1477468172.661:   -314  68   9  841
1477468172.662:   -302  68   9  841
1477468172.664:   -292  68   9  841
1477468172.664:   -292  68   9  841
1477468172.666:   -299  68   9  841
1477468172.667:   -306  68   9  841
1477468172.668:   -305  68   9  841
1477468172.668:   -295  68   9  841
1477468172.669:   -289  68   9  841
1477468172.670:   -294  68   9  841
1477468172.671:   -304  68   9  841
1477468172.671:   -311  68   9  841
1477468172.672:   -306  68   9  841
1477468172.672:   -291  68   9  841
1477468172.698:   -278  68   9  841
1477468172.699:   -275  68   9  841
1477468172.700:   -276  68   9  841
1477468172.700:   -274  68   9  841
1477468172.701:   -269  68   9  841
1477468172.702:   -265  68   9  841
1477468172.703:   -268  68   9  841
1477468172.704:   -271  68   9  841
1477468172.704:   -268  68   9  841
1477468172.705:   -262  68   9  841
1477468172.705:   -260  68   9  841
1477468172.706:   -258  68   9  841
1477468172.706:   -233  68   9  841
1477468172.707:   -165  68   9  841
1477468172.708:    -60  68   9  841
1477468172.708:     48  68   9  841
1477468172.709:    140  68   9  841
1477468172.710:    231  68   9  841
1477468172.710:    348  68   9  841
1477468172.711:    485  68   9  841
1477468172.712:    601  68   9  841
1477468172.713:    659  68   9  841
1477468172.714:    672  68   9  841
1477468172.715:    687  68   9  841
1477468172.718:    737  68   9  841
1477468172.718:    802  68   9  841
1477468172.720:    843  68   9  841
1477468172.722:    851  68   9  841
1477468172.728:    861  68   9  841
1477468172.729:    909  68   9  841
1477468172.729:    981  68   9  841
1477468172.730:   1016  68   9  841
1477468172.748:    958  68   9  841
1477468172.750:    805  68   9  841
1477468172.750:    605  68   9  841
1477468172.751:    403  68   9  841
1477468172.752:    211  68   9  841
1477468172.752:     18  68   9  841
1477468172.753:   -179  68   9  841
1477468172.762:   -353  68   9  841
1477468172.762:   -471  68   9  841
1477468172.762:   -517  68   9  841
1477468172.763:   -507  68   9  841
1477468172.763:   -466  68   9  841
1477468172.763:   -409  68   9  841
1477468172.764:   -346  68   9  841
1477468172.764:   -292  68   9  841
1477468172.764:   -267  68   9  841
1477468172.764:   -280  68   9  841
1477468172.768:   -324  68   9  841
1477468172.768:   -371  68   9  841
1477468172.770:   -400  68   9  841
1477468172.789:   -410  68   9  841
1477468172.790:   -413  68   9  841
1477468172.790:   -417  68   9  841
1477468172.791:   -412  68   9  841
1477468172.791:   -386  68   9  841
1477468172.797:   -337  68   9  841
1477468172.797:   -283  68   9  841
1477468172.798:   -243  68   9  841
1477468172.810:   -222  68   9  841
1477468172.811:   -214  68   9  841
1477468172.811:   -211  68   9  841
1477468172.811:   -210  68   9  841
1477468172.811:   -213  68   9  841
1477468172.811:   -217  68   9  841
1477468172.811:   -216  68   9  841
1477468172.811:   -203  68   9  841
1477468172.811:   -185  68   9  841
1477468172.812:   -168  68   9  841
1477468172.812:   -155  68   9  841
1477468172.812:   -145  68   9  841
1477468172.812:   -138  68   9  841
1477468172.814:   -136  68   9  841
1477468172.815:   -137  68   9  841
1477468172.816:   -132  68   9  841
1477468172.819:   -116  68   9  841
1477468172.824:    -94  68   9  841
1477468172.824:    -86  68   9  841
1477468172.826:    -98  68   9  841
1477468172.827:   -117  68   9  841
1477468172.828:   -119  68   9  841
1477468172.830:    -97  68   9  841
1477468172.833:    -77  68   9  841
1477468172.845:    -83  68   9  841
1477468172.846:   -109  68   9  841
1477468172.846:   -121  68   9  841
1477468172.846:    -92  68   9  841
1477468172.846:    -35  68   9  841
1477468172.846:     31  68   9  841
1477468172.846:    127  68   9  841
1477468172.851:    295  72   9  826
1477468172.851:    543  72   9  826
1477468172.853:    816  72   9  826
1477468172.860:   1043  72   9  826
1477468172.862:   1223  72   9  826
1477468172.867:   1406  72   9  826
1477468172.868:   1607  72   9  826
1477468172.872:   1749  72   9  826
1477468172.872:   1726  72   9  826
1477468172.872:   1520  72   9  826
1477468172.872:   1233  72   9  826
1477468172.874:    985  72   9  826
1477468172.874:    794  72   9  826
1477468172.874:    568  72   9  826
1477468172.878:    223  72   9  826
1477468172.886:   -219  72   9  826
1477468172.887:   -624  72   9  826
1477468172.887:   -872  72   9  826
1477468172.887:   -958  72   9  826
1477468172.887:   -996  72   9  826
1477468172.888:  -1102  72   9  826
1477468172.896:  -1285  72   9  826
1477468172.897:  -1452  72   9  826
1477468172.898:  -1522  72   9  826
1477468172.903:  -1516  72   9  826
1477468172.903:  -1529  72   9  826
1477468172.904:  -1611  72   9  826
1477468172.904:  -1717  72   9  826
1477468172.906:  -1761  72   9  826
1477468172.906:  -1721  72   9  826
1477468172.908:  -1642  72   9  826
1477468172.910:  -1559  72   9  826
1477468172.910:  -1448  72   9  826
1477468172.925:  -1267  72   9  826
1477468172.926:  -1028  72   9  826
1477468172.927:   -795  72   9  826
1477468172.928:   -622  72   9  826
1477468172.929:   -504  72   9  826
1477468172.929:   -405  72   9  826
1477468172.930:   -310  72   9  826
1477468172.930:   -242  72   9  826
1477468172.931:   -221  72   9  826
1477468172.932:   -245  72   9  826
1477468172.933:   -295  72   9  826
1477468172.934:   -350  72   9  826
1477468172.936:   -389  72   9  826
1477468172.937:   -401  72   9  826
1477468172.940:   -381  72   9  826
1477468172.942:   -342  72   9  826
1477468172.947:   -302  72   9  826
1477468172.947:   -271  72   9  826
1477468172.949:   -252  72   9  826
1477468172.950:   -241  72   9  826
1477468172.965:   -238  72   9  826
1477468172.966:   -240  72   9  826
1477468172.967:   -245  72   9  826
1477468172.969:   -248  72   9  826
1477468172.970:   -247  72   9  826
1477468172.970:   -246  72   9  826
1477468172.971:   -246  72   9  826
1477468172.972:   -246  72   9  826
1477468172.972:   -240  72   9  826
1477468172.973:   -229  72   9  826
1477468172.975:   -217  72   9  826
1477468172.975:   -209  72   9  826
1477468172.977:   -210  72   9  826
1477468172.978:   -218  72   9  826
1477468172.979:   -224  72   9  826
1477468172.981:   -224  72   9  826
1477468172.983:   -220  72   9  826
1477468172.988:   -219  72   9  826
1477468172.988:   -225  72   9  826
1477468172.989:   -237  72   9  826
1477468172.993:   -245  72   9  826
1477468172.994:   -245  72   9  826
1477468172.995:   -235  72   9  826
1477468172.998:   -223  72   9  826
1477468173.013:   -212  72   9  826
1477468173.013:   -206  72   9  826
1477468173.014:   -205  72   9  826
1477468173.015:   -206  72   9  826
1477468173.015:   -206  72   9  826
1477468173.016:   -203  72   9  826
1477468173.017:   -198  72   9  826
1477468173.017:   -195  72   9  826
1477468173.018:   -200  72   9  826
1477468173.019:   -211  72   9  826
1477468173.020:   -222  72   9  826
1477468173.022:   -225  72   9  826
1477468173.023:   -216  72   9  826
1477468173.026:   -201  72   9  826
1477468173.039:   -189  72   9  826
1477468173.039:   -180  72   9  826
1477468173.039:   -173  72   9  826
1477468173.039:   -162  72   9  826
1477468173.039:   -152  72   9  826
1477468173.039:   -148  72   9  826
1477468173.040:   -153  72   9  826
1477468173.043:   -162  72   9  826
1477468173.044:   -165  72   9  826
1477468173.045:   -160  72   9  826
1477468173.046:   -153  72   9  826
1477468173.048:   -151  72   9  826
1477468173.052:   -152  72   9  826
1477468173.054:   -153  72   9  826
1477468173.057:   -147  72   9  826
1477468173.058:   -133  72   9  826
1477468173.060:   -114  72   9  826
1477468173.061:    -94  72   9  826
1477468173.075:    -80  72   9  826
1477468173.075:    -74  72   9  826
1477468173.076:    -75  72   9  826
1477468173.077:    -78  72   9  826
1477468173.078:    -80  72   9  826
1477468173.078:    -82  72   9  826
1477468173.079:    -84  72   9  826
1477468173.080:    -87  72   9  826
1477468173.081:    -90  72   9  826
1477468173.082:    -93  72   9  826
1477468173.093:    -94  72   9  826
1477468173.093:    -90  72   9  826
1477468173.093:    -76  72   9  826
1477468173.093:    -53  72   9  826
1477468173.093:    -27  72   9  826
1477468173.093:    -10  72   9  826
1477468173.093:     -7  72   9  826
1477468173.098:    -11  72   9  826
1477468173.098:    -11  72   9  826
1477468173.100:     -1  72   9  826
1477468173.101:     15  72   9  826
1477468173.105:     27  72   9  826
1477468173.110:     29  72   9  826
1477468173.111:     26  72   9  826
1477468173.111:     30  72   9  826
1477468173.111:     47  72   9  826
1477468173.114:     69  72   9  826
1477468173.114:     87  72   9  826
1477468173.116:    100  72   9  826
1477468173.118:    113  72   9  826
1477468173.129:    128  72   9  826
1477468173.129:    139  72   9  826
1477468173.129:    144  72   9  826
1477468173.129:    149  72   9  826
1477468173.129:    164  72   9  826
1477468173.130:    187  72   9  826
1477468173.132:    201  72   9  826
1477468173.134:    198  72   9  826
1477468173.139:    189  72   9  826
1477468173.139:    194  72   9  826
1477468173.147:    214  72   9  826
1477468173.147:    225  72   9  826
1477468173.147:    210  72   9  826
1477468173.147:    179  72   9  826
1477468173.149:    164  72   9  826
1477468173.192:    176  72   9  826
1477468173.193:    195  72   9  826
1477468173.193:    195  72   9  826
1477468173.193:    172  72   9  826
1477468173.193:    151  72   9  826
1477468173.194:    152  72   9  826
1477468173.194:    170  72   9  826
1477468173.194:    187  72   9  826
1477468173.194:    188  72   9  826
1477468173.194:    182  72   9  826
1477468173.194:    182  72   9  826
1477468173.194:    189  72   9  826
1477468173.195:    196  72   9  826
1477468173.195:    194  72   9  826
1477468173.195:    185  72   9  826
1477468173.195:    177  72   9  826
1477468173.195:    173  72   9  826
1477468173.196:    169  72   9  826
1477468173.196:    160  72   9  826
1477468173.196:    148  72   9  826
1477468173.196:    137  72   9  826
1477468173.215:    131  72   9  826
1477468173.216:    125  72   9  826
1477468173.218:    113  72   9  826
1477468173.221:     93  72   9  826
1477468173.221:     68  72   9  826
1477468173.222:     43  72   9  826
1477468173.222:     21  72   9  826
1477468173.223:      0  72   9  826
1477468173.223:    -16  72   9  826
1477468173.223:    -28  72   9  826
1477468173.223:    -41  72   9  826
1477468173.223:    -60  72   9  826
1477468173.223:    -86  72   9  826
1477468173.223:   -109  72   9  826
1477468173.224:   -120  72   9  826
1477468173.224:   -122  72   9  826
1477468173.225:   -126  72   9  826
1477468173.226:   -145  72   9  826
1477468173.238:   -172  72   9  826
1477468173.238:   -192  72   9  826
1477468173.238:   -198  72   9  826
1477468173.238:   -198  72   9  826
1477468173.238:   -203  72   9  826
1477468173.239:   -218  72   9  826
1477468173.240:   -233  72   9  826
1477468173.240:   -242  72   9  826
1477468173.244:   -247  72   9  826
1477468173.244:   -250  72   9  826
1477468173.246:   -252  72   9  826
1477468173.248:   -252  72   9  826
1477468173.257:   -252  72   9  826
1477468173.257:   -257  72   9  826
1477468173.257:   -270  72   9  826
1477468173.257:   -281  72   9  826
1477468173.258:   -283  72   9  826
1477468173.260:   -279  72   9  826
1477468173.262:   -278  72   9  826
1477468173.263:   -284  72   9  826
1477468173.268:   -293  72   9  826
1477468173.269:   -295  72   9  826
1477468173.278:   -291  72   9  826
1477468173.278:   -286  72   9  826
1477468173.278:   -290  72   9  826
1477468173.278:   -299  72   9  826
1477468173.279:   -306  72   9  826
1477468173.281:   -309  72   9  826
1477468173.281:   -310  72   9  826
1477468173.283:   -314  72   9  826
1477468173.285:   -320  72   9  826
1477468173.287:   -323  72   9  826
1477468173.296:   -321  72   9  826
1477468173.296:   -315  72   9  826
1477468173.312:   -310  72   9  826
1477468173.314:   -308  72   9  826
1477468173.317:   -308  72   9  826
1477468173.318:   -305  72   9  826
1477468173.318:   -301  72   9  826
1477468173.318:   -298  72   9  826
1477468173.318:   -297  72   9  826
1477468173.319:   -296  72   9  826
1477468173.319:   -292  72   9  826
1477468173.320:   -287  72   9  826
1477468173.320:   -284  72   9  826
1477468173.320:   -285  72   9  826
1477468173.320:   -288  72   9  826
1477468173.321:   -289  72   9  826
1477468173.322:   -287  72   9  826
1477468173.323:   -281  72   9  826
1477468173.334:   -273  72   9  826
1477468173.334:   -272  72   9  826
1477468173.334:   -279  72   9  826
1477468173.334:   -289  72   9  826
1477468173.335:   -290  72   9  826
1477468173.336:   -276  72   9  826
1477468173.336:   -259  72   9  826
1477468173.338:   -253  72   9  826
1477468173.339:   -265  72   9  826
1477468173.342:   -283  72   9  826
1477468173.352:   -292  72   9  826
1477468173.352:   -288  72   9  826
1477468173.352:   -281  72   9  826
1477468173.352:   -276  72   9  826
1477468173.352:   -278  72   9  826
1477468173.355:   -283  72   9  826
1477468173.356:   -284  72   9  826
1477468173.358:   -276  72   9  826
1477468173.359:   -255  72   9  826
1477468173.364:   -228  72   9  826
1477468173.370:   -211  72   9  826
1477468173.370:   -211  72   9  826
1477468173.370:   -219  72   9  826
1477468173.370:   -219  72   9  826
1477468173.372:   -209  72   9  826
1477468173.373:   -203  72   9  826
1477468173.378:   -214  72   9  826
1477468173.378:   -233  72   9  826
1477468173.381:   -242  72   9  826
1477468173.382:   -234  72   9  826
1477468173.383:   -223  72   9  826
1477468173.386:   -221  72   9  826
1477468173.393:   -226  72   9  826
1477468173.393:   -224  72   9  826
1477468173.393:   -211  72   9  826
1477468173.394:   -196  72   9  826
1477468173.396:   -193  72   9  826
1477468173.397:   -202  72   9  826
1477468173.399:   -211  72   9  826
1477468173.401:   -215  72   9  826
1477468173.411:   -214  72   9  826
1477468173.411:   -213  72   9  826
1477468173.411:   -213  72   9  826
1477468173.411:   -209  72   9  826
1477468173.412:   -201  72   9  826
1477468173.413:   -192  72   9  826
1477468173.414:   -189  72   9  826
1477468173.419:   -189  72   9  826
1477468173.429:   -188  72   9  826
1477468173.430:   -183  72   9  826
1477468173.430:   -181  72   9  826
1477468173.430:   -184  72   9  826
1477468173.430:   -192  72   9  826
1477468173.430:   -198  72   9  826
1477468173.432:   -198  72   9  826
1477468173.433:   -196  72   9  826
1477468173.436:   -194  72   9  826
1477468173.436:   -196  72   9  826
1477468173.438:   -198  72   9  826
1477468173.440:   -201  72   9  826
1477468173.447:   -207  72   9  826
1477468173.448:   -213  72   9  826
1477468173.448:   -220  72   9  826
1477468173.448:   -224  72   9  826
1477468173.451:   -229  72   9  826
1477468173.452:   -238  72   9  826
1477468173.454:   -247  72   9  826
1477468173.456:   -254  72   9  826
1477468173.465:   -257  72   9  826
1477468173.465:   -259  72   9  826
1477468173.466:   -259  72   9  826
1477468173.466:   -252  72   9  826
1477468173.466:   -242  72   9  826
1477468173.468:   -236  72   9  826
1477468173.470:   -239  72   9  826
1477468173.474:   -247  72   9  826
1477468173.483:   -250  72   9  826
1477468173.483:   -247  72   9  826
1477468173.483:   -249  72   9  826
1477468173.483:   -260  72   9  826
1477468173.483:   -272  72   9  826
1477468173.484:   -277  72   9  826
1477468173.488:   -277  72   9  826
1477468173.488:   -280  72   9  826
1477468173.490:   -284  72   9  826
1477468173.491:   -275  72   9  826
1477468173.500:   -250  72   9  826
1477468173.500:   -225  72   9  826
1477468173.500:   -220  72   9  826
1477468173.501:   -232  72   9  826
1477468173.501:   -235  72   9  826
1477468173.503:   -217  72   9  826
1477468173.505:   -194  72   9  826
1477468173.507:   -186  72   9  826
1477468173.509:   -193  72   9  826
1477468173.510:   -194  72   9  826
1477468173.518:   -178  72   9  826
1477468173.518:   -163  72   9  826
1477468173.518:   -165  72   9  826
1477468173.518:   -173  72   9  826
1477468173.521:   -149  72   9  826
1477468173.523:    -75  72   9  826
1477468173.524:     33  72   9  826
1477468173.529:    136  72   9  826
1477468173.536:    226  72   9  826
1477468173.537:    329  72   9  826
1477468173.537:    468  72   9  826
1477468173.537:    630  72   9  826
1477468173.537:    772  72   9  826
1477468173.538:    864  72   9  826
1477468173.543:    915  72   9  826
1477468173.543:    958  72   9  826
1477468173.546:   1016  72   9  826
1477468173.547:   1076  72   9  826
1477468173.548:   1114  72   9  826
1477468173.550:   1125  72   9  826
1477468173.560:   1134  72   9  826
1477468173.560:   1161  72   9  826
1477468173.560:   1185  72   9  826
1477468173.560:   1159  72   9  826
1477468173.560:   1045  72   9  826
1477468173.562:    849  72   9  826
1477468173.563:    617  72   9  826
1477468173.566:    394  72   9  826
1477468173.570:    191  72   9  826
1477468173.570:     -4  72   9  826
1477468173.579:   -199  72   9  826
1477468173.579:   -373  72   9  826
1477468173.579:   -491  72   9  826
1477468173.579:   -530  72   9  826
1477468173.580:   -501  72   9  826
1477468173.582:   -437  72   9  826
1477468173.583:   -371  72   9  826
1477468173.587:   -324  72   9  826
1477468173.588:   -297  72   9  826
1477468173.589:   -293  72   9  826
1477468173.598:   -311  72   9  826
1477468173.599:   -350  72   9  826
1477468173.599:   -398  72   9  826
1477468173.599:   -438  72   9  826
1477468173.599:   -466  72   9  826
1477468173.602:   -484  72   9  826
1477468173.604:   -497  72   9  826
1477468173.604:   -498  72   9  826
1477468173.607:   -475  72   9  826
1477468173.611:   -428  72   9  826
1477468173.617:   -377  72   9  826
1477468173.617:   -340  72   9  826
1477468173.617:   -325  72   9  826
1477468173.617:   -324  72   9  826
1477468173.618:   -327  72   9  826
1477468173.621:   -330  72   9  826
1477468173.625:   -332  72   9  826
1477468173.626:   -329  72   9  826
1477468173.636:   -317  72   9  826
1477468173.636:   -299  72   9  826
1477468173.636:   -281  72   9  826
1477468173.636:   -268  72   9  826
1477468173.639:   -255  72   9  826
1477468173.639:   -240  72   9  826
1477468173.639:   -227  72   9  826
1477468173.641:   -219  72   9  826
1477468173.643:   -214  72   9  826
1477468173.644:   -203  72   9  826
1477468173.646:   -180  72   9  826
1477468173.651:   -153  72   9  826
1477468173.656:   -140  72   9  826
1477468173.656:   -147  72   9  826
1477468173.656:   -159  72   9  826
1477468173.657:   -154  72   9  826
1477468173.661:   -130  72   9  826
1477468173.662:   -111  72   9  826
1477468173.665:   -126  72   9  826
1477468173.666:   -165  72   9  826
1477468173.667:   -185  72   9  826
1477468173.671:   -149  72   9  826
1477468173.678:    -71  72   9  826
1477468173.678:      6  72   9  826
1477468173.678:     82  72   9  826
1477468173.678:    217  72   9  826
1477468173.678:    452  72   9  826
1477468173.679:    751  72   9  826
1477468173.684:   1019  72   9  844
1477468173.684:   1208  72   9  844
1477468173.686:   1365  72   9  844
1477468173.687:   1549  72   9  844
1477468173.696:   1732  72   9  844
1477468173.696:   1797  72   9  844
1477468173.697:   1664  72   9  844
1477468173.698:   1383  72   9  844
1477468173.698:   1083  72   9  844
1477468173.700:    844  72   9  844
1477468173.701:    630  72   9  844
1477468173.706:    345  72   9  844
1477468173.714:    -49  72   9  844
1477468173.714:   -481  72   9  844
1477468173.714:   -827  72   9  844
1477468173.714:  -1020  72   9  844
1477468173.714:  -1106  72   9  844
1477468173.714:  -1197  72   9  844
1477468173.717:  -1365  72   9  844
1477468173.719:  -1581  72   9  844
1477468173.721:  -1753  72   9  844
1477468173.725:  -1840  72   9  844
1477468173.731:  -1894  72   9  844
1477468173.731:  -1987  72   9  844
1477468173.732:  -2117  72   9  844
1477468173.734:  -2204  72   9  844
1477468173.734:  -2188  72   9  844
1477468173.736:  -2095  72   9  844
1477468173.737:  -1991  72   9  844
1477468173.739:  -1886  72   9  844
1477468173.740:  -1728  72   9  844
1477468173.743:  -1481  72   9  844
1477468173.753:  -1189  72   9  844
1477468173.754:   -938  72   9  844
1477468173.754:   -774  72   9  844
1477468173.754:   -662  72   9  844
1477468173.754:   -556  72   9  844
1477468173.755:   -448  72   9  844
1477468173.756:   -379  72   9  844
1477468173.761:   -378  72   9  844
1477468173.771:   -434  72   9  844
1477468173.772:   -502  72   9  844
1477468173.772:   -542  72   9  844
1477468173.772:   -544  72   9  844
1477468173.772:   -525  72   9  844
1477468173.772:   -501  72   9  844
1477468173.775:   -471  72   9  844
1477468173.775:   -431  72   9  844
1477468173.777:   -387  72   9  844
1477468173.778:   -363  72   9  844
1477468173.781:   -375  72   9  844
1477468173.785:   -409  72   9  844
1477468173.796:   -428  72   9  844
1477468173.797:   -414  72   9  844
1477468173.797:   -384  72   9  844
1477468173.797:   -367  72   9  844
1477468173.797:   -369  72   9  844
1477468173.797:   -371  72   9  844
1477468173.797:   -350  72   9  844
1477468173.798:   -313  72   9  844
1477468173.799:   -285  72   9  844
1477468173.802:   -282  72   9  844
1477468173.803:   -296  72   9  844
1477468173.807:   -307  72   9  844
1477468173.816:   -304  72   9  844
1477468173.816:   -294  72   9  844
1477468173.816:   -285  72   9  844
1477468173.816:   -285  72   9  844
1477468173.816:   -291  72   9  844
1477468173.817:   -296  72   9  844
1477468173.821:   -298  72   9  844
1477468173.822:   -297  72   9  844
1477468173.823:   -294  72   9  844
1477468173.826:   -289  72   9  844
1477468173.836:   -280  72   9  844
1477468173.837:   -264  72   9  844
1477468173.837:   -244  72   9  844
1477468173.837:   -232  72   9  844
1477468173.837:   -233  72   9  844
1477468173.840:   -242  72   9  844
1477468173.841:   -248  72   9  844
1477468173.842:   -243  72   9  844
1477468173.844:   -231  72   9  844
1477468173.844:   -225  72   9  844
1477468173.849:   -230  72   9  844
1477468173.849:   -238  72   9  844
1477468173.856:   -234  72   9  844
1477468173.856:   -217  72   9  844
1477468173.859:   -197  72   9  844
1477468173.859:   -188  72   9  844
1477468173.859:   -190  72   9  844
1477468173.861:   -193  72   9  844
1477468173.862:   -186  72   9  844
1477468173.868:   -172  72   9  844
1477468173.876:   -165  72   9  844
1477468173.877:   -171  72   9  844
1477468173.877:   -183  72   9  844
1477468173.877:   -190  72   9  844
1477468173.878:   -184  72   9  844
1477468173.878:   -177  72   9  844
1477468173.880:   -178  72   9  844
1477468173.881:   -189  72   9  844
1477468173.882:   -196  72   9  844
1477468173.885:   -192  72   9  844
1477468173.894:   -178  72   9  844
1477468173.894:   -166  72   9  844
1477468173.894:   -164  72   9  844
1477468173.894:   -168  72   9  844
1477468173.895:   -171  72   9  844
1477468173.900:   -169  72   9  844
1477468173.900:   -164  72   9  844
1477468173.901:   -158  72   9  844
1477468173.912:   -149  72   9  844
1477468173.912:   -139  72   9  844
1477468173.912:   -132  72   9  844
1477468173.913:   -124  72   9  844
1477468173.913:   -110  72   9  844
1477468173.913:    -86  72   9  844
1477468173.914:    -64  72   9  844
1477468173.917:    -58  72   9  844
1477468173.918:    -74  72   9  844
1477468173.919:    -95  72   9  844
1477468173.928:    -98  72   9  844
1477468173.928:    -81  72   9  844
1477468173.928:    -59  72   9  844
1477468173.929:    -49  72   9  844
1477468173.931:    -44  72   9  844
1477468173.932:    -29  72   9  844
1477468173.933:     -1  72   9  844
1477468173.936:     29  72   9  844
1477468173.946:     51  72   9  844
1477468173.946:     70  72   9  844
1477468173.946:     98  72   9  844
1477468173.946:    130  72   9  844
1477468173.946:    152  72   9  844
1477468173.950:    154  72   9  844
1477468173.950:    150  72   9  844
1477468173.954:    158  72   9  844
1477468173.964:    182  72   9  844
1477468173.964:    205  72   9  844
1477468173.964:    213  72   9  844
1477468173.964:    207  72   9  844
1477468173.964:    204  72   9  844
1477468173.964:    210  72   9  844
1477468173.966:    224  72   9  844
1477468173.967:    241  72   9  844
1477468173.969:    259  72   9  844
1477468173.973:    277  72   9  844
1477468173.973:    290  72   9  844
1477468173.974:    294  72   9  844
1477468173.983:    289  72   9  844
1477468174.033:    286  72   9  844
1477468174.044:    289  72   9  844
1477468174.044:    294  72   9  844
1477468174.044:    294  72   9  844
1477468174.044:    290  72   9  844
1477468174.045:    289  72   9  844
1477468174.045:    294  72   9  844
1477468174.045:    300  72   9  844
1477468174.045:    299  72   9  844
1477468174.046:    292  72   9  844
1477468174.046:    286  72   9  844
1477468174.046:    285  72   9  844
1477468174.046:    286  72   9  844
1477468174.046:    283  72   9  844
1477468174.046:    273  72   9  844
1477468174.046:    259  72   9  844
1477468174.046:    249  72   9  844
1477468174.047:    244  72   9  844
1477468174.047:    239  72   9  844
1477468174.047:    224  72   9  844
1477468174.047:    198  72   9  844
1477468174.048:    171  72   9  844
1477468174.048:    153  72   9  844
1477468174.048:    146  72   9  844
1477468174.048:    138  72   9  844
1477468174.048:    118  72   9  844
1477468174.048:     90  72   9  844
1477468174.049:     68  72   9  844
1477468174.049:     57  72   9  844
1477468174.049:     46  72   9  844
1477468174.049:     23  72   9  844
1477468174.049:    -11  72   9  844
1477468174.049:    -40  72   9  844
1477468174.050:    -59  72   9  844
1477468174.050:    -72  72   9  844
1477468174.050:    -90  72   9  844
1477468174.050:   -117  72   9  844
1477468174.052:   -141  72   9  844
1477468174.053:   -159  72   9  844
1477468174.063:   -171  72   9  844
1477468174.063:   -182  72   9  844
1477468174.063:   -194  72   9  844
1477468174.064:   -212  72   9  844
1477468174.064:   -233  72   9  844
1477468174.066:   -256  72   9  844
1477468174.067:   -273  72   9  844
1477468174.069:   -279  72   9  844
1477468174.071:   -281  72   9  844
1477468174.073:   -289  72   9  844
1477468174.081:   -306  72   9  844
1477468174.081:   -324  72   9  844
1477468174.081:   -330  72   9  844
1477468174.082:   -326  72   9  844
1477468174.083:   -323  72   9  844
1477468174.085:   -326  72   9  844
1477468174.088:   -330  72   9  844
1477468174.091:   -329  72   9  844
1477468174.099:   -323  72   9  844
1477468174.099:   -318  72   9  844
1477468174.099:   -319  72   9  844
1477468174.099:   -323  72   9  844
1477468174.100:   -327  72   9  844
1477468174.100:   -330  72   9  844
1477468174.103:   -335  72   9  844
1477468174.105:   -343  72   9  844
1477468174.106:   -351  72   9  844
1477468174.110:   -352  72   9  844
1477468174.118:   -346  72   9  844
1477468174.118:   -335  72   9  844
1477468174.119:   -326  72   9  844
1477468174.119:   -324  72   9  844
1477468174.119:   -326  72   9  844
1477468174.121:   -326  72   9  844
1477468174.122:   -324  72   9  844
1477468174.124:   -323  72   9  844
1477468174.128:   -326  72   9  844
1477468174.128:   -327  72   9  844
1477468174.136:   -320  72   9  844
1477468174.136:   -306  72   9  844
1477468174.136:   -292  72   9  844
1477468174.136:   -288  72   9  844
1477468174.138:   -293  72   9  844
1477468174.139:   -301  72   9  844
1477468174.142:   -305  72   9  844
1477468174.146:   -304  72   9  844
1477468174.147:   -303  72   9  844
1477468174.148:   -307  72   9  844
1477468174.151:   -317  72   9  844
1477468174.152:   -325  72   9  844
1477468174.160:   -323  72   9  844
1477468174.160:   -310  72   9  844
1477468174.160:   -299  72   9  844
1477468174.161:   -299  72   9  844
1477468174.162:   -312  72   9  844
1477468174.163:   -324  72   9  844
1477468174.167:   -322  72   9  844
1477468174.168:   -308  72   9  844
1477468174.178:   -294  72   9  844
1477468174.178:   -289  72   9  844
1477468174.178:   -288  72   9  844
1477468174.179:   -285  72   9  844
1477468174.179:   -279  72   9  844
1477468174.180:   -277  72   9  844
1477468174.181:   -283  72   9  844
1477468174.183:   -296  72   9  844
1477468174.188:   -305  72   9  844
1477468174.188:   -306  72   9  844
1477468174.196:   -301  72   9  844
1477468174.196:   -295  72   9  844
1477468174.196:   -292  72   9  844
1477468174.196:   -287  72   9  844
1477468174.197:   -279  72   9  844
1477468174.201:   -267  72   9  844
1477468174.202:   -259  72   9  844
1477468174.203:   -263  72   9  844
1477468174.205:   -275  72   9  844
1477468174.206:   -283  72   9  844
1477468174.216:   -280  72   9  844
1477468174.216:   -268  72   9  844
1477468174.216:   -258  72   9  844
1477468174.217:   -257  72   9  844
1477468174.217:   -262  72   9  844
1477468174.218:   -266  72   9  844
1477468174.220:   -270  72   9  844
1477468174.222:   -276  72   9  844
1477468174.224:   -285  72   9  844
1477468174.229:   -293  72   9  844
1477468174.234:   -293  72   9  844
1477468174.234:   -290  72   9  844
1477468174.234:   -289  72   9  844
1477468174.235:   -289  72   9  844
1477468174.236:   -287  72   9  844
1477468174.238:   -282  72   9  844
1477468174.242:   -282  72   9  844
1477468174.243:   -291  72   9  844
1477468174.252:   -305  72   9  844
1477468174.253:   -315  72   9  844
1477468174.253:   -314  72   9  844
1477468174.253:   -308  72   9  844
1477468174.253:   -303  72   9  844
1477468174.256:   -299  72   9  844
1477468174.256:   -294  72   9  844
1477468174.258:   -288  72   9  844
1477468174.259:   -289  72   9  844
1477468174.260:   -302  72   9  844
1477468174.271:   -325  72   9  844
1477468174.272:   -347  72   9  844
1477468174.272:   -356  72   9  844
1477468174.272:   -351  72   9  844
1477468174.274:   -338  72   9  844
1477468174.275:   -325  72   9  844
1477468174.276:   -318  72   9  844
1477468174.277:   -316  72   9  844
1477468174.280:   -318  72   9  844
1477468174.281:   -322  72   9  844
1477468174.283:   -325  72   9  844
1477468174.284:   -327  72   9  844
1477468174.295:   -329  72   9  844
1477468174.295:   -333  72   9  844
1477468174.295:   -338  72   9  844
1477468174.295:   -337  72   9  844
1477468174.298:   -326  72   9  844
1477468174.298:   -311  72   9  844
1477468174.299:   -303  72   9  844
1477468174.300:   -311  72   9  844
1477468174.302:   -327  72   9  844
1477468174.338:   -341  72   9  844
1477468174.346:   -346  72   9  844
1477468174.346:   -342  72   9  844
1477468174.347:   -331  72   9  844
1477468174.347:   -319  72   9  844
1477468174.347:   -309  72   9  844
1477468174.347:   -305  72   9  844
1477468174.347:   -309  72   9  844
1477468174.347:   -316  72   9  844
1477468174.348:   -325  72   9  844
1477468174.348:   -334  72   9  844
1477468174.348:   -343  72   9  844
1477468174.348:   -348  72   9  844
1477468174.348:   -342  72   9  844
1477468174.349:   -324  72   9  844
1477468174.349:   -304  72   9  844
1477468174.349:   -292  72   9  844
1477468174.349:   -291  72   9  844
1477468174.349:   -292  72   9  844
1477468174.350:   -290  72   9  844
1477468174.350:   -291  72   9  844
1477468174.350:   -305  72   9  844
1477468174.351:   -324  72   9  844
1477468174.352:   -323  72   9  844
1477468174.353:   -276  72   9  844
1477468174.355:   -181  72   9  844
1477468174.357:    -62  72   9  844
1477468174.367:     52  72   9  844
1477468174.367:    156  72   9  844
1477468174.367:    271  72   9  844
1477468174.367:    418  72   9  844
1477468174.367:    588  72   9  844
1477468174.369:    748  72   9  844
1477468174.369:    873  72   9  844
1477468174.371:    966  72   9  844
1477468174.376:   1050  72   9  844
1477468174.376:   1135  72   9  844
1477468174.386:   1207  72   9  844
1477468174.386:   1245  72   9  844
1477468174.386:   1247  72   9  844
1477468174.386:   1237  72   9  844
1477468174.387:   1234  72   9  844
1477468174.387:   1228  72   9  844
1477468174.390:   1183  72   9  844
1477468174.394:   1066  72   9  844
1477468174.404:    875  72   9  844
1477468174.404:    636  72   9  844
1477468174.404:    384  72   9  844
1477468174.405:    142  72   9  844
1477468174.405:    -85  72   9  844
1477468174.405:   -298  72   9  844
1477468174.408:   -485  72   9  844
1477468174.408:   -620  72   9  844
1477468174.409:   -675  72   9  844
1477468174.411:   -644  72   9  844
1477468174.412:   -555  72   9  844
1477468174.418:   -455  72   9  844
1477468174.427:   -385  72   9  844
1477468174.428:   -357  72   9  844
1477468174.428:   -363  72   9  844
1477468174.428:   -390  72   9  844
1477468174.428:   -434  72   9  844
1477468174.429:   -487  72   9  844
1477468174.429:   -539  72   9  844
1477468174.431:   -573  72   9  844
1477468174.436:   -584  72   9  844
1477468174.436:   -578  72   9  844
1477468174.446:   -565  72   9  844
1477468174.446:   -547  72   9  844
1477468174.446:   -518  72   9  844
1477468174.447:   -474  72   9  844
1477468174.447:   -426  72   9  844
1477468174.449:   -393  72   9  844
1477468174.449:   -391  72   9  844
1477468174.452:   -410  72   9  844
1477468174.453:   -426  72   9  844
1477468174.454:   -419  72   9  844
1477468174.464:   -392  72   9  844
1477468174.464:   -371  72   9  844
1477468174.464:   -375  72   9  844
1477468174.464:   -393  72   9  844
1477468174.464:   -398  72   9  844
1477468174.466:   -378  72   9  844
1477468174.467:   -344  72   9  844
1477468174.469:   -318  72   9  844
1477468174.496:   -307  72   9  844
1477468174.497:   -297  72   9  844
1477468174.498:   -276  72   9  844
1477468174.501:   -248  72   9  844
1477468174.501:   -230  72   9  844
1477468174.501:   -235  72   9  844
1477468174.502:   -258  72   9  844
1477468174.502:   -280  72   9  844
1477468174.502:   -285  72   9  844
1477468174.502:   -275  72   9  844
1477468174.502:   -262  72   9  844
1477468174.502:   -261  72   9  844
1477468174.503:   -271  72   9  844
1477468174.503:   -274  72   9  844
1477468174.503:   -254  72   9  844
1477468174.505:   -212  72   9  844
1477468174.515:   -161  72   9  844
1477468174.515:    -86  72   9  844
1477468174.516:     62  75  10  841
1477468174.516:    312  75  10  841
1477468174.516:    630  75  10  841
1477468174.516:    930  75  10  841
1477468174.518:   1158  75  10  841
1477468174.518:   1341  75  10  841
1477468174.520:   1526  75  10  841
1477468174.521:   1692  75  10  841
1477468174.522:   1745  75  10  841
1477468174.524:   1616  75  10  841
1477468174.532:   1339  75  10  841
1477468174.533:   1023  75  10  841
1477468174.533:    749  75  10  841
1477468174.533:    507  75  10  841
1477468174.536:    234  75  10  841
1477468174.537:   -109  75  10  841
1477468174.538:   -493  75  10  841
1477468174.541:   -837  75  10  841
1477468174.550:  -1070  75  10  841
1477468174.550:  -1190  75  10  841
1477468174.550:  -1270  75  10  841
1477468174.550:  -1401  75  10  841
1477468174.550:  -1611  75  10  841
1477468174.552:  -1839  75  10  841
1477468174.554:  -2006  75  10  841
1477468174.556:  -2115  75  10  841
1477468174.558:  -2237  75  10  841
1477468174.559:  -2407  75  10  841
1477468174.567:  -2562  75  10  841
1477468174.568:  -2606  75  10  841
1477468174.568:  -2517  75  10  841
1477468174.568:  -2364  75  10  841
1477468174.570:  -2204  75  10  841
1477468174.572:  -2012  75  10  841
1477468174.573:  -1733  75  10  841
1477468174.577:  -1379  75  10  841
1477468174.585:  -1043  75  10  841
1477468174.585:   -812  75  10  841
1477468174.585:   -683  75  10  841
1477468174.585:   -592  75  10  841
1477468174.586:   -498  75  10  841
1477468174.587:   -417  75  10  841
1477468174.591:   -384  75  10  841
1477468174.592:   -404  75  10  841
1477468174.602:   -450  75  10  841
1477468174.602:   -493  75  10  841
1477468174.602:   -521  75  10  841
1477468174.602:   -530  75  10  841
1477468174.602:   -521  75  10  841
1477468174.605:   -491  75  10  841
1477468174.605:   -449  75  10  841
1477468174.607:   -414  75  10  841
1477468174.610:   -398  75  10  841
1477468174.611:   -402  75  10  841
1477468174.613:   -413  75  10  841
1477468174.614:   -415  75  10  841
1477468174.618:   -407  75  10  841
1477468174.619:   -398  75  10  841
1477468174.627:   -396  75  10  841
1477468174.627:   -396  75  10  841
1477468174.627:   -388  75  10  841
1477468174.627:   -366  75  10  841
1477468174.629:   -338  75  10  841
1477468174.636:   -319  75  10  841
1477468174.645:   -317  75  10  841
1477468174.645:   -330  75  10  841
1477468174.645:   -343  75  10  841
1477468174.645:   -351  75  10  841
1477468174.645:   -356  75  10  841
1477468174.646:   -364  75  10  841
1477468174.646:   -374  75  10  841
1477468174.647:   -376  75  10  841
1477468174.650:   -362  75  10  841
1477468174.650:   -336  75  10  841
1477468174.652:   -313  75  10  841
1477468174.654:   -301  75  10  841
1477468174.663:   -302  75  10  841
1477468174.664:   -310  75  10  841
1477468174.664:   -323  75  10  841
1477468174.666:   -337  75  10  841
1477468174.666:   -346  75  10  841
1477468174.669:   -342  75  10  841
1477468174.670:   -324  75  10  841
1477468174.671:   -301  75  10  841
1477468174.674:   -281  75  10  841
1477468174.674:   -266  75  10  841
1477468174.682:   -257  75  10  841
1477468174.683:   -251  75  10  841
1477468174.684:   -248  75  10  841
1477468174.686:   -249  75  10  841
1477468174.687:   -255  75  10  841
1477468174.688:   -263  75  10  841
1477468174.689:   -269  75  10  841
1477468174.691:   -267  75  10  841
1477468174.702:   -253  75  10  841
1477468174.702:   -231  75  10  841
1477468174.702:   -213  75  10  841
1477468174.702:   -209  75  10  841
1477468174.702:   -218  75  10  841
1477468174.702:   -228  75  10  841
1477468174.703:   -224  75  10  841
1477468174.704:   -207  75  10  841
1477468174.707:   -186  75  10  841
1477468174.709:   -170  75  10  841
1477468174.710:   -162  75  10  841
1477468174.713:   -160  75  10  841
1477468174.722:   -158  75  10  841
1477468174.722:   -154  75  10  841
1477468174.722:   -148  75  10  841
1477468174.723:   -147  75  10  841
1477468174.723:   -154  75  10  841
1477468174.725:   -161  75  10  841
1477468174.729:   -154  75  10  841
1477468174.729:   -130  75  10  841
1477468174.731:    -97  75  10  841
1477468174.732:    -72  75  10  841
1477468174.734:    -64  75  10  841
1477468174.737:    -68  75  10  841
1477468174.745:    -71  75  10  841
1477468174.745:    -71  75  10  841
1477468174.745:    -68  75  10  841
1477468174.745:    -63  75  10  841
1477468174.746:    -55  75  10  841
1477468174.751:    -40  75  10  841
1477468174.752:    -22  75  10  841
1477468174.753:     -5  75  10  841
1477468174.763:      8  75  10  841
1477468174.764:     18  75  10  841
1477468174.764:     23  75  10  841
1477468174.764:     23  75  10  841
1477468174.764:     20  75  10  841
1477468174.766:     19  75  10  841
1477468174.766:     30  75  10  841
1477468174.773:     57  75  10  841
1477468174.781:     93  75  10  841
1477468174.781:    125  75  10  841
1477468174.782:    144  75  10  841
1477468174.782:    153  75  10  841
1477468174.782:    160  75  10  841
1477468174.782:    173  75  10  841
1477468174.784:    192  75  10  841
1477468174.784:    212  75  10  841
1477468174.786:    232  75  10  841
1477468174.787:    251  75  10  841
1477468174.790:    269  75  10  841
1477468174.792:    284  75  10  841
1477468174.799:    290  75  10  841
1477468174.799:    290  75  10  841
1477468174.799:    288  75  10  841
1477468174.805:    288  75  10  841
1477468174.806:    292  75  10  841
1477468174.807:    300  75  10  841
1477468174.816:    310  75  10  841
