timestamp: ADC HeartRate4sAverage HeartRate30sAverage HRV8sAverage
1477481771.368:    406  82  11  733
1477481771.413:    396  82  11  733
1477481771.415:    381  82  11  733
1477481771.415:    363  82  11  733
1477481771.415:    350  82  11  733
1477481771.415:    343  82  11  733
1477481771.416:    341  82  11  733
1477481771.416:    337  82  11  733
1477481771.416:    325  82  11  733
1477481771.416:    308  82  11  733
1477481771.416:    295  82  11  733
1477481771.416:    290  82  11  733
1477481771.417:    288  82  11  733
1477481771.417:    283  82  11  733
1477481771.417:    272  82  11  733
1477481771.417:    261  82  11  733
1477481771.417:    257  82  11  733
1477481771.417:    258  82  11  733
1477481771.417:    254  82  11  733
1477481771.418:    242  82  11  733
1477481771.419:    230  82  11  733
1477481771.419:    228  82  11  733
1477481771.419:    236  82  11  733
1477481771.420:    242  82  11  733
1477481771.420:    234  82  11  733
1477481771.421:    221  82  11  733
1477481771.421:    218  82  11  733
1477481771.422:    231  82  11  733
1477481771.422:    249  82  11  733
1477481771.422:    253  82  11  733
1477481771.422:    242  82  11  733
1477481771.422:    230  82  11  733
1477481771.423:    230  82  11  733
1477481771.423:    238  82  11  733
1477481771.423:    242  82  11  733
1477481771.423:    236  82  11  733
1477481771.423:    230  82  11  733
1477481771.423:    231  82  11  733
1477481771.423:    235  82  11  733
1477481771.424:    232  82  11  733
1477481771.424:    219  82  11  733
1477481771.424:    201  82  11  733
1477481771.424:    183  82  11  733
1477481771.424:    164  82  11  733
1477481771.424:    139  82  11  733
1477481771.424:    107  82  11  733
1477481771.425:     74  82  11  733
1477481771.425:     46  82  11  733
1477481771.425:     20  82  11  733
1477481771.425:    -10  82  11  733
1477481771.425:    -45  82  11  733
1477481771.425:    -82  82  11  733
1477481771.425:   -112  82  11  733
1477481771.426:   -132  82  11  733
1477481771.426:   -145  82  11  733
1477481771.426:   -167  82  11  733
1477481771.427:   -209  82  11  733
1477481771.427:   -269  82  11  733
1477481771.452:   -330  82  11  733
1477481771.453:   -375  82  11  733
1477481771.453:   -401  82  11  733
1477481771.453:   -424  82  11  733
1477481771.453:   -456  82  11  733
1477481771.453:   -488  82  11  733
1477481771.454:   -493  82  11  733
1477481771.454:   -449  82  11  733
1477481771.454:   -364  82  11  733
1477481771.454:   -266  82  11  733
1477481771.454:   -176  82  11  733
1477481771.454:    -97  82  11  733
1477481771.455:    -18  82  11  733
1477481771.455:     62  82  11  733
1477481771.455:    130  82  11  733
1477481771.455:    174  82  11  733
1477481771.455:    197  82  11  733
1477481771.456:    210  82  11  733
1477481771.456:    218  82  11  733
1477481771.456:    219  82  11  733
1477481771.456:    218  82  11  733
1477481771.456:    227  82  11  733
1477481771.458:    259  82  11  733
1477481771.459:    307  82  11  733
1477481771.459:    357  82  11  733
1477481771.459:    395  82  11  733
1477481771.459:    425  82  11  733
1477481771.460:    453  82  11  733
1477481771.460:    480  82  11  733
1477481771.460:    500  82  11  733
1477481771.460:    509  82  11  733
1477481771.463:    510  82  11  733
1477481771.464:    506  82  11  733
1477481771.464:    499  82  11  733
1477481771.473:    490  82  11  733
1477481771.473:    481  82  11  733
1477481771.479:    480  82  11  733
1477481771.479:    484  82  11  733
1477481771.481:    485  82  11  733
1477481771.486:    477  82  11  733
1477481771.486:    461  82  11  733
1477481771.490:    445  82  11  733
1477481771.509:    434  82  11  733
1477481771.509:    429  82  11  733
1477481771.509:    427  82  11  733
1477481771.510:    425  82  11  733
1477481771.510:    423  82  11  733
1477481771.510:    418  82  11  733
1477481771.511:    412  82  11  733
1477481771.518:    407  82  11  733
1477481771.519:    406  82  11  733
1477481771.519:    410  82  11  733
1477481771.527:    415  82  11  733
1477481771.528:    412  82  11  733
1477481771.528:    401  82  11  733
1477481771.528:    388  82  11  733
1477481771.529:    382  82  11  733
1477481771.529:    382  82  11  733
1477481771.530:    380  82  11  733
1477481771.532:    371  82  11  733
1477481771.532:    354  82  11  733
1477481771.533:    332  82  11  733
1477481771.534:    301  82  11  733
1477481771.539:    262  82  11  733
1477481771.550:    225  82  11  733
1477481771.550:    201  82  11  733
1477481771.550:    183  82  11  733
1477481771.550:    153  82  11  733
1477481771.551:    108  82  11  733
1477481771.551:     83  82  11  733
1477481771.551:    112  82  11  733
1477481771.551:    166  82  11  733
1477481771.557:    175  82  11  733
1477481771.557:    100  82  11  733
1477481771.559:    -21  82  11  733
1477481771.561:   -149  82  11  733
1477481771.561:   -333  82  11  733
1477481771.562:   -688  82  11  733
1477481771.572:  -1251  82  11  733
1477481771.572:  -1915  82  11  733
1477481771.573:  -2541  82  11  733
1477481771.573:  -3110  82  11  733
1477481771.573:  -3699  82  11  733
1477481771.573:  -4277  82  11  733
1477481771.574:  -4612  82  11  733
1477481771.574:  -4460  82  11  733
1477481771.575:  -3817  82  11  733
1477481771.575:  -2903  82  11  733
1477481771.576:  -1867  82  11  733
1477481771.576:   -580  82  11  733
1477481771.578:   1178  82  11  733
1477481771.579:   3337  82  11  733
1477481771.583:   5436  82  11  733
1477481771.583:   6964  82  11  733
1477481771.596:   7762  82  11  733
1477481771.596:   8055  82  11  733
1477481771.597:   8109  82  11  733
1477481771.597:   7928  82  11  733
1477481771.597:   7326  82  11  733
1477481771.597:   6226  82  11  733
1477481771.598:   4830  82  11  733
1477481771.599:   3485  82  11  733
1477481771.603:   2437  82  11  733
1477481771.603:   1722  82  11  733
1477481771.604:   1258  82  11  733
1477481771.605:    968  82  11  733
1477481771.608:    810  82  11  733
1477481771.610:    745  82  11  733
1477481771.612:    719  82  11  733
1477481771.616:    681  82  11  733
1477481771.637:    608  82  11  733
1477481771.638:    501  82  11  733
1477481771.638:    359  82  11  733
1477481771.638:    179  82  11  733
1477481771.639:    -25  82  11  733
1477481771.639:   -217  82  11  733
1477481771.639:   -353  82  11  733
1477481771.640:   -406  82  11  733
1477481771.640:   -386  82  11  733
1477481771.640:   -321  82  11  733
1477481771.640:   -251  82  11  733
1477481771.640:   -207  82  11  733
1477481771.640:   -210  82  11  733
1477481771.643:   -263  82  11  733
1477481771.643:   -349  82  11  733
1477481771.645:   -437  82  11  733
1477481771.647:   -500  82  11  733
1477481771.649:   -523  82  11  733
1477481771.650:   -509  82  11  733
1477481771.657:   -472  82  11  733
1477481771.665:   -430  82  11  733
1477481771.665:   -401  82  11  733
1477481771.666:   -398  82  11  733
1477481771.667:   -420  82  11  733
1477481771.667:   -455  82  11  733
1477481771.667:   -483  82  11  733
1477481771.668:   -497  82  11  733
1477481771.669:   -500  82  11  733
1477481771.670:   -500  82  11  733
1477481771.675:   -497  82  11  733
1477481771.675:   -488  82  11  733
1477481771.677:   -474  82  11  733
1477481771.691:   -467  82  11  733
1477481771.691:   -480  82  11  733
1477481771.691:   -507  82  11  733
1477481771.691:   -531  82  11  733
1477481771.691:   -541  82  11  733
1477481771.692:   -538  82  11  733
1477481771.692:   -538  82  11  733
1477481771.692:   -548  82  11  733
1477481771.697:   -562  82  11  733
1477481771.697:   -570  82  11  733
1477481771.699:   -570  82  11  733
1477481771.700:   -573  82  11  733
1477481771.710:   -588  82  11  733
1477481771.711:   -611  82  11  733
1477481771.711:   -632  82  11  733
1477481771.713:   -647  82  11  733
1477481771.713:   -659  82  11  733
1477481771.715:   -671  82  11  733
1477481771.716:   -683  82  11  733
1477481771.716:   -690  82  11  733
1477481771.718:   -694  82  11  733
1477481771.720:   -700  82  11  733
1477481771.730:   -715  82  11  733
1477481771.731:   -736  82  11  733
1477481771.732:   -756  82  11  733
1477481771.733:   -772  82  11  733
1477481771.735:   -790  82  11  733
1477481771.735:   -816  82  11  733
1477481771.735:   -851  82  11  733
1477481771.739:   -887  82  11  733
1477481771.748:   -917  82  11  733
1477481771.749:   -941  82  11  733
1477481771.750:   -965  82  11  733
1477481771.750:   -992  82  11  733
1477481771.751:  -1022  82  11  733
1477481771.752:  -1052  82  11  733
1477481771.752:  -1079  82  11  733
1477481771.753:  -1105  82  11  733
1477481771.756:  -1132  82  11  733
1477481771.758:  -1162  82  11  733
1477481771.766:  -1195  82  11  733
1477481771.766:  -1228  82  11  733
1477481771.767:  -1259  82  11  733
1477481771.773:  -1286  82  11  733
1477481771.773:  -1311  82  11  733
1477481771.773:  -1337  82  11  733
1477481771.773:  -1363  82  11  733
1477481771.778:  -1390  82  11  733
1477481771.786:  -1412  82  11  733
1477481771.786:  -1429  83  11  730
1477481771.786:  -1440  83  11  730
1477481771.786:  -1451  83  11  730
1477481771.786:  -1462  83  11  730
1477481771.791:  -1475  83  11  730
1477481771.791:  -1485  83  11  730
1477481771.792:  -1491  83  11  730
1477481771.793:  -1492  83  11  730
1477481771.795:  -1492  83  11  730
1477481771.798:  -1493  83  11  730
1477481771.799:  -1496  83  11  730
1477481771.807:  -1499  83  11  730
1477481771.808:  -1497  83  11  730
1477481771.811:  -1490  83  11  730
1477481771.816:  -1478  83  11  730
1477481771.827:  -1463  83  11  730
1477481771.827:  -1445  83  11  730
1477481771.827:  -1419  83  11  730
1477481771.827:  -1384  83  11  730
1477481771.827:  -1344  83  11  730
1477481771.841:  -1304  83  11  730
1477481771.847:  -1261  83  11  730
1477481771.848:  -1213  83  11  730
1477481771.848:  -1161  83  11  730
1477481771.848:  -1109  83  11  730
1477481771.848:  -1060  83  11  730
1477481771.848:  -1009  83  11  730
1477481771.848:   -951  83  11  730
1477481771.850:   -885  83  11  730
1477481771.851:   -814  83  11  730
1477481771.851:   -742  83  11  730
1477481771.851:   -668  83  11  730
1477481771.851:   -588  83  11  730
1477481771.852:   -503  83  11  730
1477481771.852:   -417  83  11  730
1477481771.852:   -333  83  11  730
1477481771.857:   -250  83  11  730
1477481771.858:   -167  83  11  730
1477481771.859:    -87  83  11  730
1477481771.868:    -10  83  11  730
1477481771.868:     64  83  11  730
1477481771.868:    134  83  11  730
1477481771.868:    204  83  11  730
1477481771.869:    272  83  11  730
1477481771.869:    339  83  11  730
1477481771.869:    405  83  11  730
1477481771.872:    470  83  11  730
1477481771.873:    533  83  11  730
1477481771.874:    592  83  11  730
1477481771.875:    646  83  11  730
1477481771.876:    695  83  11  730
1477481771.877:    742  83  11  730
1477481771.878:    787  83  11  730
1477481771.886:    829  83  11  730
1477481771.887:    867  83  11  730
1477481771.891:    897  83  11  730
1477481771.892:    919  83  11  730
1477481771.893:    937  83  11  730
1477481771.893:    954  83  11  730
1477481771.896:    970  83  11  730
1477481771.897:    982  83  11  730
1477481771.910:    990  83  11  730
1477481771.910:    996  83  11  730
1477481771.911:   1003  83  11  730
1477481771.911:   1013  83  11  730
1477481771.912:   1022  83  11  730
1477481771.913:   1025  83  11  730
1477481771.913:   1025  83  11  730
1477481771.914:   1024  83  11  730
1477481771.915:   1025  83  11  730
1477481771.916:   1029  83  11  730
1477481771.917:   1034  83  11  730
1477481771.920:   1037  83  11  730
1477481771.931:   1034  83  11  730
1477481771.931:   1026  83  11  730
1477481771.932:   1015  83  11  730
1477481771.933:   1004  83  11  730
1477481771.933:    995  83  11  730
1477481771.934:    983  83  11  730
1477481771.935:    964  83  11  730
1477481771.938:    941  83  11  730
1477481771.949:    920  83  11  730
1477481771.949:    906  83  11  730
1477481771.950:    900  83  11  730
1477481771.950:    894  83  11  730
1477481771.950:    885  83  11  730
1477481771.950:    874  83  11  730
1477481771.952:    862  83  11  730
1477481771.953:    849  83  11  730
1477481771.954:    836  83  11  730
1477481771.956:    822  83  11  730
1477481771.958:    807  83  11  730
1477481771.959:    790  83  11  730
1477481771.970:    770  83  11  730
1477481771.970:    748  83  11  730
1477481771.970:    726  83  11  730
1477481771.970:    707  83  11  730
1477481771.970:    691  83  11  730
1477481771.970:    675  83  11  730
1477481771.971:    660  83  11  730
1477481771.971:    644  83  11  730
1477481771.977:    630  83  11  730
1477481771.977:    618  83  11  730
1477481771.978:    608  83  11  730
1477481771.979:    597  83  11  730
1477481771.989:    585  83  11  730
1477481771.990:    567  83  11  730
1477481771.990:    545  83  11  730
1477481771.990:    522  83  11  730
1477481771.991:    504  83  11  730
1477481771.995:    491  83  11  730
1477481771.996:    480  83  11  730
1477481771.999:    466  83  11  730
1477481771.999:    449  83  11  730
1477481772.000:    434  83  11  730
1477481772.003:    422  83  11  730
1477481772.004:    410  83  11  730
1477481772.008:    395  83  11  730
1477481772.013:    381  83  11  730
1477481772.025:    373  83  11  730
1477481772.026:    371  83  11  730
1477481772.026:    365  83  11  730
1477481772.027:    347  83  11  730
1477481772.027:    325  83  11  730
1477481772.027:    312  83  11  730
1477481772.027:    310  83  11  730
1477481772.029:    309  83  11  730
1477481772.030:    298  83  11  730
1477481772.030:    281  83  11  730
1477481772.031:    269  83  11  730
1477481772.032:    270  83  11  730
1477481772.033:    276  83  11  730
1477481772.034:    274  83  11  730
1477481772.047:    260  83  11  730
1477481772.048:    245  83  11  730
1477481772.049:    239  83  11  730
1477481772.049:    240  83  11  730
1477481772.050:    241  83  11  730
1477481772.051:    235  83  11  730
1477481772.051:    226  83  11  730
1477481772.052:    219  83  11  730
1477481772.054:    219  83  11  730
1477481772.058:    221  83  11  730
1477481772.084:    220  83  11  730
1477481772.085:    216  83  11  730
1477481772.085:    211  83  11  730
1477481772.087:    206  83  11  730
1477481772.148:    201  83  11  730
1477481772.149:    193  83  11  730
1477481772.149:    181  83  11  730
1477481772.149:    165  83  11  730
1477481772.149:    149  83  11  730
1477481772.149:    130  83  11  730
1477481772.149:    107  83  11  730
1477481772.150:     80  83  11  730
1477481772.150:     51  83  11  730
1477481772.151:     21  83  11  730
1477481772.151:    -13  83  11  730
1477481772.151:    -55  83  11  730
1477481772.192:    -99  83  11  730
1477481772.193:   -136  83  11  730
1477481772.193:   -164  83  11  730
1477481772.194:   -191  83  11  730
1477481772.195:   -228  83  11  730
1477481772.196:   -279  83  11  730
1477481772.197:   -336  83  11  730
1477481772.198:   -382  83  11  730
1477481772.198:   -412  83  11  730
1477481772.199:   -431  83  11  730
1477481772.199:   -450  83  11  730
1477481772.199:   -468  83  11  730
1477481772.199:   -472  83  11  730
1477481772.200:   -439  83  11  730
1477481772.200:   -362  83  11  730
1477481772.200:   -259  83  11  730
1477481772.201:   -155  83  11  730
1477481772.201:    -67  83  11  730
1477481772.201:      9  83  11  730
1477481772.202:     83  83  11  730
1477481772.202:    157  83  11  730
1477481772.203:    217  83  11  730
1477481772.203:    252  83  11  730
1477481772.203:    262  83  11  730
1477481772.203:    258  83  11  730
1477481772.208:    253  83  11  730
1477481772.208:    252  83  11  730
1477481772.208:    259  83  11  730
1477481772.209:    281  83  11  730
1477481772.209:    318  83  11  730
1477481772.209:    364  83  11  730
1477481772.209:    411  83  11  730
1477481772.210:    451  83  11  730
1477481772.210:    487  83  11  730
1477481772.210:    523  83  11  730
1477481772.210:    558  83  11  730
1477481772.211:    584  83  11  730
1477481772.211:    596  83  11  730
1477481772.211:    596  83  11  730
1477481772.211:    592  83  11  730
1477481772.212:    588  83  11  730
1477481772.212:    588  83  11  730
1477481772.212:    588  83  11  730
1477481772.213:    585  83  11  730
1477481772.231:    579  83  11  730
1477481772.231:    572  83  11  730
1477481772.232:    566  83  11  730
1477481772.232:    563  83  11  730
1477481772.232:    557  83  11  730
1477481772.233:    546  83  11  730
1477481772.233:    533  83  11  730
1477481772.233:    526  83  11  730
1477481772.233:    528  83  11  730
1477481772.234:    533  83  11  730
1477481772.234:    533  83  11  730
1477481772.234:    525  83  11  730
1477481772.235:    516  83  11  730
1477481772.235:    513  83  11  730
1477481772.235:    517  83  11  730
1477481772.235:    520  83  11  730
1477481772.235:    511  83  11  730
1477481772.236:    489  83  11  730
1477481772.236:    466  83  11  730
1477481772.236:    452  83  11  730
1477481772.236:    445  83  11  730
1477481772.237:    434  83  11  730
1477481772.237:    417  83  11  730
1477481772.237:    397  83  11  730
1477481772.237:    375  83  11  730
1477481772.238:    348  83  11  730
1477481772.238:    314  83  11  730
1477481772.239:    280  83  11  730
1477481772.239:    254  83  11  730
1477481772.239:    232  83  11  730
1477481772.251:    202  83  11  730
1477481772.252:    173  83  11  730
1477481772.253:    174  83  11  730
1477481772.254:    221  83  11  730
1477481772.255:    273  83  11  730
1477481772.255:    269  83  11  730
1477481772.256:    195  83  11  730
1477481772.257:     93  83  11  730
1477481772.257:    -21  83  11  730
1477481772.258:   -221  83  11  730
1477481772.259:   -616  83  11  730
1477481772.259:  -1211  83  11  730
1477481772.272:  -1884  83  11  730
1477481772.272:  -2514  83  11  730
1477481772.273:  -3102  83  11  730
1477481772.273:  -3703  83  11  730
1477481772.274:  -4239  83  11  730
1477481772.275:  -4467  83  11  730
1477481772.275:  -4193  83  11  730
1477481772.276:  -3464  83  11  730
1477481772.276:  -2489  83  11  730
1477481772.277:  -1359  83  11  730
1477481772.277:     77  83  11  730
1477481772.289:   1966  83  11  730
1477481772.290:   4132  83  11  730
1477481772.290:   6087  83  11  730
1477481772.291:   7396  83  11  730
1477481772.291:   8006  83  11  730
1477481772.291:   8174  83  11  730
1477481772.320:   8113  83  11  730
1477481772.324:   7783  83  11  730
1477481772.326:   7013  83  11  730
1477481772.326:   5790  83  11  730
1477481772.327:   4365  83  11  730
1477481772.329:   3075  83  11  730
1477481772.330:   2119  83  11  730
1477481772.331:   1492  83  11  730
1477481772.331:   1096  83  11  730
1477481772.334:    853  83  11  730
1477481772.335:    727  83  11  730
1477481772.350:    682  83  11  730
1477481772.351:    665  83  11  730
1477481772.352:    626  83  11  730
1477481772.353:    542  83  11  730
1477481772.354:    415  83  11  730
1477481772.355:    257  83  11  730
1477481772.356:     74  83  11  730
1477481772.356:   -117  83  11  730
1477481772.357:   -289  83  11  730
1477481772.358:   -411  83  11  730
1477481772.358:   -460  83  11  730
1477481772.359:   -436  83  11  730
1477481772.359:   -361  83  11  730
1477481772.359:   -280  83  11  730
1477481772.370:   -238  83  11  730
1477481772.370:   -255  83  11  730
1477481772.371:   -318  83  11  730
1477481772.372:   -393  83  11  730
1477481772.372:   -453  83  11  730
1477481772.373:   -490  83  11  730
1477481772.373:   -503  83  11  730
1477481772.374:   -493  83  11  730
1477481772.375:   -459  83  11  730
1477481772.376:   -418  83  11  730
1477481772.386:   -396  83  11  730
1477481772.386:   -408  83  11  730
1477481772.386:   -445  83  11  730
1477481772.387:   -483  83  11  730
1477481772.387:   -502  83  11  730
1477481772.387:   -505  83  11  730
1477481772.387:   -503  83  11  730
1477481772.387:   -503  83  11  730
1477481772.387:   -499  83  11  730
1477481772.387:   -488  83  11  730
1477481772.387:   -476  83  11  730
1477481772.388:   -474  83  11  730
1477481772.388:   -486  83  11  730
1477481772.388:   -502  83  11  730
1477481772.388:   -510  83  11  730
1477481772.388:   -511  83  11  730
1477481772.390:   -512  83  11  730
1477481772.392:   -521  83  11  730
1477481772.393:   -531  83  11  730
1477481772.398:   -533  83  11  730
1477481772.399:   -529  83  11  730
1477481772.400:   -527  83  11  730
1477481772.401:   -536  83  11  730
1477481772.403:   -555  83  11  730
1477481772.404:   -573  83  11  730
1477481772.407:   -581  83  11  730
1477481772.411:   -586  83  11  730
1477481772.411:   -593  83  11  730
1477481772.413:   -604  83  11  730
1477481772.415:   -616  83  11  730
1477481772.417:   -625  83  11  730
1477481772.419:   -635  83  11  730
1477481772.432:   -650  83  11  730
1477481772.433:   -668  83  11  730
1477481772.434:   -687  83  11  730
1477481772.434:   -706  83  11  730
1477481772.435:   -727  83  11  730
1477481772.435:   -751  83  11  730
1477481772.436:   -775  83  11  730
1477481772.437:   -797  83  11  730
1477481772.440:   -822  83  11  730
1477481772.440:   -853  83  11  730
1477481772.452:   -888  83  11  730
1477481772.452:   -918  83  11  730
1477481772.453:   -937  83  11  730
1477481772.453:   -952  83  11  730
1477481772.454:   -973  83  11  730
1477481772.454:  -1001  83  11  730
1477481772.455:  -1029  83  11  730
1477481772.456:  -1052  83  11  730
1477481772.457:  -1071  83  11  730
1477481772.460:  -1095  83  11  730
1477481772.471:  -1127  83  11  730
1477481772.472:  -1162  83  11  730
1477481772.473:  -1193  83  11  730
1477481772.473:  -1221  83  11  730
1477481772.474:  -1250  83  11  730
1477481772.474:  -1283  83  11  730
1477481772.475:  -1316  83  11  730
1477481772.476:  -1345  83  11  730
1477481772.479:  -1366  83  11  730
1477481772.479:  -1382  83  11  730
1477481772.503:  -1398  83  11  730
1477481772.508:  -1417  83  11  730
1477481772.508:  -1435  83  11  730
1477481772.509:  -1447  83  11  730
1477481772.510:  -1450  83  11  730
1477481772.510:  -1444  83  11  726
1477481772.519:  -1436  83  11  726
1477481772.519:  -1428  83  11  726
1477481772.519:  -1423  83  11  726
1477481772.519:  -1415  83  11  726
1477481772.520:  -1401  83  11  726
1477481772.520:  -1381  83  11  726
1477481772.537:  -1360  83  11  726
1477481772.537:  -1343  83  11  726
1477481772.538:  -1331  83  11  726
1477481772.538:  -1315  83  11  726
1477481772.539:  -1288  83  11  726
1477481772.539:  -1250  83  11  726
1477481772.540:  -1207  83  11  726
1477481772.540:  -1165  83  11  726
1477481772.540:  -1122  83  11  726
1477481772.541:  -1076  83  11  726
1477481772.541:  -1027  83  11  726
1477481772.541:   -975  83  11  726
1477481772.541:   -920  83  11  726
1477481772.542:   -859  83  11  726
1477481772.542:   -792  83  11  726
1477481772.542:   -723  83  11  726
1477481772.542:   -657  83  11  726
1477481772.543:   -591  83  11  726
1477481772.543:   -518  83  11  726
1477481772.543:   -437  83  11  726
1477481772.544:   -355  83  11  726
1477481772.546:   -277  83  11  726
1477481772.557:   -201  83  11  726
1477481772.558:   -122  83  11  726
1477481772.558:    -37  83  11  726
1477481772.558:     43  83  11  726
1477481772.558:    110  83  11  726
1477481772.559:    169  83  11  726
1477481772.561:    232  83  11  726
1477481772.563:    305  83  11  726
1477481772.564:    380  83  11  726
1477481772.564:    443  83  11  726
1477481772.566:    490  83  11  726
1477481772.569:    531  83  11  726
1477481772.571:    577  83  11  726
1477481772.575:    632  83  11  726
1477481772.583:    691  83  11  726
1477481772.584:    744  83  11  726
1477481772.584:    783  83  11  726
1477481772.584:    808  83  11  726
1477481772.584:    825  83  11  726
1477481772.584:    846  83  11  726
1477481772.589:    876  83  11  726
1477481772.589:    909  83  11  726
1477481772.590:    928  83  11  726
1477481772.592:    931  83  11  726
1477481772.593:    928  83  11  726
1477481772.595:    936  83  11  726
1477481772.597:    958  83  11  726
1477481772.603:    979  83  11  726
1477481772.604:    986  83  11  726
1477481772.606:    983  83  11  726
1477481772.623:    981  83  11  726
1477481772.624:    986  83  11  726
1477481772.624:    985  83  11  726
1477481772.625:    969  83  11  726
1477481772.626:    947  83  11  726
1477481772.626:    933  83  11  726
1477481772.627:    927  83  11  726
1477481772.628:    917  83  11  726
1477481772.628:    891  83  11  726
1477481772.630:    864  83  11  726
1477481772.631:    857  83  11  726
1477481772.632:    870  83  11  726
1477481772.644:    883  83  11  726
1477481772.644:    878  83  11  726
1477481772.647:    857  83  11  726
1477481772.648:    840  83  11  726
1477481772.649:    840  83  11  726
1477481772.649:    845  83  11  726
1477481772.649:    838  83  11  726
1477481772.649:    817  83  11  726
1477481772.649:    791  83  11  726
1477481772.650:    771  83  11  726
1477481772.651:    758  83  11  726
1477481772.653:    748  83  11  726
1477481772.662:    740  83  11  726
1477481772.663:    733  83  11  726
1477481772.663:    724  83  11  726
1477481772.664:    707  83  11  726
1477481772.664:    681  83  11  726
1477481772.665:    650  83  11  726
1477481772.667:    622  83  11  726
1477481772.669:    597  83  11  726
1477481772.678:    572  83  11  726
1477481772.678:    545  83  11  726
1477481772.679:    518  83  11  726
1477481772.679:    492  83  11  726
1477481772.681:    473  83  11  726
1477481772.681:    460  83  11  726
1477481772.682:    451  83  11  726
1477481772.684:    442  83  11  726
1477481772.685:    427  83  11  726
1477481772.685:    407  83  11  726
1477481772.695:    389  83  11  726
1477481772.697:    379  83  11  726
1477481772.698:    379  83  11  726
1477481772.699:    377  83  11  726
1477481772.700:    364  83  11  726
1477481772.700:    341  83  11  726
1477481772.702:    319  83  11  726
1477481772.703:    310  83  11  726
1477481772.712:    312  83  11  726
1477481772.713:    313  83  11  726
1477481772.713:    304  83  11  726
1477481772.715:    287  83  11  726
1477481772.715:    272  83  11  726
1477481772.717:    263  83  11  726
1477481772.718:    257  83  11  726
1477481772.719:    253  83  11  726
1477481772.728:    251  83  11  726
1477481772.729:    254  83  11  726
1477481772.729:    257  83  11  726
1477481772.729:    253  83  11  726
1477481772.730:    242  83  11  726
1477481772.731:    231  83  11  726
1477481772.732:    226  83  11  726
1477481772.739:    231  83  11  726
1477481772.746:    235  83  11  726
1477481772.746:    232  83  11  726
1477481772.747:    223  83  11  726
1477481772.747:    215  83  11  726
1477481772.751:    209  83  11  726
1477481772.752:    208  83  11  726
1477481772.753:    210  83  11  726
1477481772.755:    216  83  11  726
1477481772.765:    225  83  11  726
1477481772.765:    236  83  11  726
1477481772.765:    241  83  11  726
1477481772.765:    241  83  11  726
1477481772.765:    240  83  11  726
1477481772.765:    242  83  11  726
1477481772.765:    246  83  11  726
1477481772.765:    246  83  11  726
1477481772.768:    240  83  11  726
1477481772.774:    229  83  11  726
1477481772.783:    213  83  11  726
1477481772.783:    191  83  11  726
1477481772.783:    168  83  11  726
1477481772.783:    150  83  11  726
1477481772.783:    139  83  11  726
1477481772.783:    127  83  11  726
1477481772.785:    103  83  11  726
1477481772.787:     67  83  11  726
1477481772.789:     29  83  11  726
1477481772.789:     -1  83  11  726
1477481772.791:    -23  83  11  726
1477481772.797:    -45  83  11  726
1477481772.803:    -75  83  11  726
1477481772.803:   -109  83  11  726
1477481772.803:   -141  83  11  726
1477481772.803:   -176  83  11  726
1477481772.804:   -224  83  11  726
1477481772.804:   -286  83  11  726
1477481772.806:   -350  83  11  726
1477481772.809:   -400  83  11  726
1477481772.811:   -430  83  11  726
1477481772.879:   -449  83  11  726
1477481772.881:   -460  83  11  726
1477481772.881:   -457  83  11  726
1477481772.881:   -422  83  11  726
1477481772.882:   -350  83  11  726
1477481772.882:   -255  83  11  726
1477481772.882:   -160  83  11  726
1477481772.882:    -74  83  11  726
1477481772.882:      4  83  11  726
1477481772.883:     77  83  11  726
1477481772.883:    136  83  11  726
1477481772.883:    170  83  11  726
1477481772.883:    184  83  11  726
1477481772.883:    194  83  11  726
1477481772.883:    211  83  11  726
1477481772.883:    228  83  11  726
1477481772.883:    238  83  11  726
1477481772.884:    246  83  11  726
1477481772.884:    267  83  11  726
1477481772.884:    308  83  11  726
1477481772.884:    359  83  11  726
1477481772.884:    405  83  11  726
1477481772.884:    436  83  11  726
1477481772.884:    451  83  11  726
1477481772.885:    459  83  11  726
1477481772.885:    466  83  11  726
1477481772.885:    478  83  11  726
1477481772.885:    495  83  11  726
1477481772.886:    510  83  11  726
1477481772.886:    513  83  11  726
1477481772.886:    505  83  11  726
1477481772.887:    493  83  11  726
1477481772.887:    488  83  11  726
1477481772.887:    490  83  11  726
1477481772.887:    491  83  11  726
1477481772.887:    485  83  11  726
1477481772.889:    474  83  11  726
1477481772.889:    463  83  11  726
1477481772.889:    455  83  11  726
1477481772.889:    448  83  11  726
1477481772.890:    443  83  11  726
1477481772.894:    440  83  11  726
1477481772.895:    441  83  11  726
1477481772.907:    441  83  11  726
1477481772.907:    431  83  11  726
1477481772.907:    412  83  11  726
1477481772.907:    392  83  11  726
1477481772.907:    380  83  11  726
1477481772.908:    378  83  11  726
1477481772.908:    378  83  11  726
1477481772.909:    373  83  11  726
1477481772.913:    364  83  11  726
1477481772.914:    361  83  11  726
1477481772.920:    365  83  11  726
1477481772.920:    373  83  11  726
1477481772.922:    376  83  11  726
1477481772.923:    374  83  11  726
1477481772.924:    365  83  11  726
1477481772.943:    345  83  11  726
1477481772.957:    309  83  11  726
1477481772.957:    262  83  11  726
1477481772.957:    221  83  11  726
1477481772.957:    188  83  11  726
1477481772.959:    147  83  11  726
1477481772.959:     86  83  11  726
1477481772.960:     30  83  11  726
1477481772.960:     26  83  11  726
1477481772.960:     82  83  11  726
1477481772.960:    134  83  11  726
1477481772.961:    108  83  11  726
1477481772.966:      8  83  11  726
1477481772.966:   -105  83  11  726
1477481772.985:   -218  83  11  726
1477481772.985:   -437  83  11  726
1477481773.012:   -881  83  11  726
1477481773.018:  -1536  83  11  726
1477481773.027:  -2252  83  11  726
1477481773.086:  -2905  83  11  726
1477481773.086:  -3512  83  11  726
1477481773.090:  -4121  83  11  726
1477481773.090:  -4631  83  11  726
1477481773.090:  -4800  83  11  726
1477481773.090:  -4466  83  11  726
1477481773.090:  -3702  83  11  726
1477481773.090:  -2688  83  11  726
1477481773.105:  -1453  83  11  726
1477481773.106:    155  83  11  726
1477481773.107:   2195  83  11  726
1477481773.108:   4401  83  11  726
1477481773.109:   6294  83  11  726
1477481773.109:   7544  83  11  726
1477481773.109:   8176  83  11  726
1477481773.109:   8409  83  11  726
1477481773.123:   8358  83  11  726
1477481773.124:   7937  83  11  726
1477481773.124:   7041  83  11  726
1477481773.125:   5753  83  11  726
1477481773.125:   4345  83  11  726
1477481773.125:   3100  83  11  726
1477481773.126:   2158  83  11  726
1477481773.126:   1509  83  11  726
1477481773.152:   1087  83  11  726
1477481773.153:    834  83  11  726
1477481773.154:    705  83  11  726
1477481773.158:    653  83  11  726
1477481773.172:    629  83  11  726
1477481773.173:    594  83  11  726
1477481773.174:    522  83  11  726
1477481773.174:    401  83  11  726
1477481773.177:    234  83  11  726
1477481773.177:     43  83  11  726
1477481773.211:   -145  83  11  726
1477481773.211:   -297  83  11  726
1477481773.221:   -389  83  11  726
1477481773.222:   -409  83  11  726
1477481773.223:   -370  83  11  726
1477481773.225:   -308  83  11  726
1477481773.225:   -262  83  11  726
1477481773.226:   -254  83  11  726
1477481773.269:   -282  83  11  726
1477481773.269:   -334  83  11  726
1477481773.277:   -407  83  11  726
1477481773.279:   -496  83  11  726
1477481773.280:   -580  83  11  726
1477481773.281:   -619  83  11  726
1477481773.282:   -591  83  11  726
1477481773.283:   -523  83  11  726
1477481773.283:   -469  83  11  726
1477481773.284:   -468  83  11  726
1477481773.284:   -508  83  11  726
1477481773.285:   -549  83  11  726
1477481773.286:   -564  83  11  726
1477481773.290:   -562  83  11  726
1477481773.306:   -564  83  11  726
1477481773.306:   -575  83  11  726
1477481773.307:   -583  83  11  726
1477481773.307:   -578  83  11  726
1477481773.307:   -569  83  11  726
1477481773.307:   -572  83  11  726
1477481773.307:   -586  83  11  726
1477481773.307:   -602  83  11  726
1477481773.308:   -611  83  11  726
1477481773.308:   -616  83  11  726
1477481773.308:   -612  83  11  726
1477481773.308:   -597  83  11  726
1477481773.308:   -584  83  11  726
1477481773.308:   -593  83  11  726
1477481773.309:   -619  83  11  726
1477481773.309:   -641  83  11  726
1477481773.309:   -641  83  11  726
1477481773.309:   -614  83  11  726
1477481773.309:   -551  83  11  726
1477481773.309:   -470  83  11  726
1477481773.309:   -383  83  11  726
1477481773.310:   -308  83  11  726
1477481773.310:   -247  83  11  726
1477481773.310:   -189  83  11  726
1477481773.310:   -120  83  11  726
1477481773.310:    -35  83  11  726
1477481773.310:     55  83  11  726
1477481773.310:    134  83  11  726
1477481773.310:    191  83  11  726
1477481773.311:    233  83  11  726
1477481773.311:    282  83  11  726
1477481773.311:    347  83  11  726
1477481773.311:    416  83  11  726
1477481773.311:    471  83  11  726
1477481773.311:    507  83  11  726
1477481773.312:    543  83  11  726
1477481773.312:    594  83  11  726
1477481773.312:    656  83  11  726
1477481773.313:    713  83  11  726
1477481773.314:    758  83  11  726
1477481773.314:    799  83  11  726
1477481773.315:    844  83  11  726
1477481773.316:    886  83  11  726
1477481773.322:    918  83  11  726
1477481773.343:    942  83  11  726
1477481773.344:    965  83  11  726
1477481773.344:    987  83  11  726
1477481773.345:   1001  83  11  726
1477481773.346:   1006  83  11  726
1477481773.347:   1013  83  11  726
1477481773.348:   1029  83  11  726
1477481773.349:   1042  83  11  726
1477481773.349:   1037  83  11  726
1477481773.350:   1013  83  11  726
1477481773.351:    990  83  11  726
1477481773.352:    981  83  11  726
1477481773.362:    979  83  11  726
1477481773.362:    970  83  11  726
1477481773.364:    951  83  11  726
1477481773.364:    934  83  11  726
1477481773.365:    926  80  10  739
1477481773.367:    924  80  10  739
1477481773.368:    922  80  10  739
1477481773.369:    923  80  10  739
1477481773.370:    927  80  10  739
1477481773.371:    924  80  10  739
1477481773.372:    903  80  10  739
1477481773.372:    867  80  10  739
1477481773.373:    837  80  10  739
1477481773.379:    825  80  10  739
1477481773.412:    820  80  10  739
1477481773.413:    806  80  10  739
1477481773.414:    778  80  10  739
1477481773.416:    754  80  10  739
1477481773.417:    747  80  10  739
1477481773.417:    754  80  10  739
1477481773.418:    757  80  10  739
1477481773.419:    748  80  10  739
1477481773.419:    727  80  10  739
1477481773.420:    704  80  10  739
1477481773.421:    679  80  10  739
1477481773.422:    652  80  10  739
1477481773.424:    625  80  10  739
1477481773.425:    601  80  10  739
1477481773.438:    580  80  10  739
1477481773.439:    558  80  10  739
1477481773.439:    528  80  10  739
1477481773.439:    493  80  10  739
1477481773.439:    461  80  10  739
1477481773.439:    444  80  10  739
1477481773.439:    442  80  10  739
1477481773.439:    441  80  10  739
1477481773.439:    425  80  10  739
1477481773.440:    392  80  10  739
1477481773.440:    359  80  10  739
1477481773.440:    350  80  10  739
1477481773.440:    364  80  10  739
1477481773.440:    381  80  10  739
1477481773.440:    375  80  10  739
1477481773.440:    347  80  10  739
1477481773.440:    320  80  10  739
1477481773.441:    314  80  10  739
1477481773.441:    321  80  10  739
1477481773.441:    319  80  10  739
1477481773.441:    298  80  10  739
1477481773.441:    269  80  10  739
1477481773.441:    255  80  10  739
1477481773.441:    261  80  10  739
1477481773.442:    268  80  10  739
1477481773.442:    256  80  10  739
1477481773.442:    230  80  10  739
1477481773.442:    211  80  10  739
1477481773.442:    218  80  10  739
1477481773.442:    242  80  10  739
1477481773.442:    256  80  10  739
1477481773.442:    246  80  10  739
1477481773.443:    231  80  10  739
1477481773.443:    235  80  10  739
1477481773.443:    260  80  10  739
1477481773.443:    279  80  10  739
1477481773.443:    270  80  10  739
1477481773.443:    240  80  10  739
1477481773.449:    220  80  10  739
1477481773.449:    226  80  10  739
1477481773.450:    243  80  10  739
1477481773.452:    244  80  10  739
1477481773.456:    227  80  10  739
1477481773.457:    213  80  10  739
1477481773.464:    221  80  10  739
1477481773.465:    246  80  10  739
1477481773.465:    264  80  10  739
1477481773.467:    266  80  10  739
1477481773.468:    257  80  10  739
1477481773.469:    250  80  10  739
1477481773.471:    248  80  10  739
1477481773.472:    245  80  10  739
1477481773.476:    236  80  10  739
1477481773.477:    226  80  10  739
1477481773.477:    218  80  10  739
1477481773.480:    210  80  10  739
1477481773.481:    195  80  10  739
1477481773.485:    173  80  10  739
1477481773.486:    149  80  10  739
1477481773.489:    129  80  10  739
1477481773.505:    113  80  10  739
1477481773.505:     95  80  10  739
1477481773.505:     75  80  10  739
1477481773.506:     56  80  10  739
1477481773.506:     43  80  10  739
1477481773.506:     29  80  10  739
1477481773.506:      6  80  10  739
1477481773.506:    -25  80  10  739
1477481773.508:    -49  80  10  739
1477481773.509:    -58  80  10  739
1477481773.515:    -68  80  10  739
1477481773.515:   -110  80  10  739
1477481773.515:   -192  80  10  739
1477481773.524:   -286  80  10  739
1477481773.525:   -354  80  10  739
1477481773.525:   -385  80  10  739
1477481773.526:   -406  80  10  739
1477481773.527:   -444  80  10  739
1477481773.540:   -486  80  10  739
1477481773.541:   -493  80  10  739
1477481773.541:   -436  80  10  739
1477481773.541:   -334  80  10  739
1477481773.541:   -232  80  10  739
1477481773.541:   -154  80  10  739
1477481773.541:    -91  80  10  739
1477481773.542:    -17  80  10  739
1477481773.544:     71  80  10  739
1477481773.545:    151  80  10  739
1477481773.545:    197  80  10  739
1477481773.547:    212  80  10  739
1477481773.548:    216  80  10  739
1477481773.552:    225  80  10  739
1477481773.562:    240  80  10  739
1477481773.563:    253  80  10  739
1477481773.563:    266  80  10  739
1477481773.563:    289  80  10  739
1477481773.563:    326  80  10  739
1477481773.563:    368  80  10  739
1477481773.564:    401  80  10  739
1477481773.568:    427  80  10  739
1477481773.569:    455  80  10  739
1477481773.571:    490  80  10  739
1477481773.571:    524  80  10  739
1477481773.574:    546  80  10  739
1477481773.584:    555  80  10  739
1477481773.584:    556  80  10  739
1477481773.584:    555  80  10  739
1477481773.584:    554  80  10  739
1477481773.585:    555  80  10  739
1477481773.585:    555  80  10  739
1477481773.587:    552  80  10  739
1477481773.589:    541  80  10  739
1477481773.592:    523  80  10  739
1477481773.592:    510  80  10  739
1477481773.594:    512  80  10  739
1477481773.599:    526  80  10  739
1477481773.599:    541  80  10  739
1477481773.601:    546  80  10  739
1477481773.602:    543  80  10  739
1477481773.604:    538  80  10  739
1477481773.605:    538  80  10  739
1477481773.608:    540  80  10  739
1477481773.622:    542  80  10  739
1477481773.623:    544  80  10  739
1477481773.623:    544  80  10  739
1477481773.624:    539  80  10  739
1477481773.624:    528  80  10  739
1477481773.625:    514  80  10  739
1477481773.626:    507  80  10  739
1477481773.626:    508  80  10  739
1477481773.627:    509  80  10  739
1477481773.630:    496  80  10  739
1477481773.640:    471  80  10  739
1477481773.640:    448  80  10  739
1477481773.640:    432  80  10  739
1477481773.640:    413  80  10  739
1477481773.640:    382  80  10  739
1477481773.640:    344  80  10  739
1477481773.644:    320  80  10  739
1477481773.644:    309  80  10  739
1477481773.646:    289  80  10  739
1477481773.647:    244  80  10  739
1477481773.652:    204  80  10  739
1477481773.652:    211  80  10  739
1477481773.654:    260  80  10  739
1477481773.655:    280  80  10  739
1477481773.659:    212  80  10  739
1477481773.660:     79  80  10  739
1477481773.670:    -51  80  10  739
1477481773.773:   -191  80  10  739
1477481773.779:   -461  80  10  739
1477481773.779:   -967  80  10  739
1477481773.779:  -1656  80  10  739
1477481773.779:  -2357  80  10  739
1477481773.779:  -2964  80  10  739
1477481773.779:  -3529  80  10  739
1477481773.780:  -4115  80  10  739
1477481773.781:  -4606  80  10  739
1477481773.784:  -4745  80  10  739
1477481773.784:  -4378  80  10  739
1477481773.784:  -3598  80  10  739
1477481773.784:  -2587  80  10  739
1477481773.784:  -1360  80  10  739
1477481773.784:    244  80  10  739
1477481773.784:   2274  80  10  739
1477481773.785:   4446  80  10  739
1477481773.785:   6284  80  10  739
1477481773.785:   7484  80  10  739
1477481773.785:   8094  80  10  739
1477481773.785:   8335  80  10  739
1477481773.785:   8307  80  10  739
1477481773.785:   7908  80  10  739
1477481773.785:   7029  80  10  739
1477481773.786:   5758  80  10  739
1477481773.786:   4373  80  10  739
1477481773.786:   3156  80  10  739
1477481773.786:   2248  80  10  739
1477481773.786:   1639  80  10  739
1477481773.786:   1256  80  10  739
1477481773.790:   1028  80  10  739
1477481773.790:    901  80  10  739
1477481773.790:    831  80  10  739
1477481773.791:    782  80  10  739
1477481773.791:    729  80  10  739
1477481773.791:    650  80  10  739
1477481773.791:    530  80  10  739
1477481773.791:    364  80  10  739
1477481773.791:    163  80  10  739
1477481773.791:    -47  80  10  739
1477481773.792:   -228  80  10  739
1477481773.792:   -345  80  10  739
1477481773.792:   -377  80  10  739
1477481773.792:   -331  80  10  739
1477481773.792:   -248  80  10  739
1477481773.792:   -184  80  10  739
1477481773.792:   -178  80  10  739
1477481773.793:   -231  80  10  739
1477481773.793:   -314  80  10  739
1477481773.793:   -392  80  10  739
1477481773.793:   -446  80  10  739
1477481773.793:   -474  80  10  739
1477481773.793:   -475  80  10  739
1477481773.793:   -450  80  10  739
1477481773.794:   -412  80  10  739
1477481773.794:   -384  80  10  739
1477481773.794:   -386  80  10  739
1477481773.794:   -415  80  10  739
1477481773.794:   -450  80  10  739
1477481773.794:   -472  80  10  739
1477481773.794:   -480  80  10  739
1477481773.811:   -486  80  10  739
1477481773.811:   -494  80  10  739
1477481773.811:   -496  80  10  739
1477481773.811:   -482  80  10  739
1477481773.812:   -464  80  10  739
1477481773.813:   -459  80  10  739
1477481773.813:   -472  80  10  739
1477481773.813:   -492  80  10  739
1477481773.813:   -508  80  10  739
1477481773.813:   -519  80  10  739
1477481773.813:   -533  80  10  739
1477481773.813:   -551  80  10  739
1477481773.814:   -560  80  10  739
1477481773.814:   -557  80  10  739
1477481773.814:   -547  80  10  739
1477481773.814:   -546  80  10  739
1477481773.815:   -558  80  10  739
1477481773.817:   -573  80  10  739
1477481773.818:   -586  80  10  739
1477481773.824:   -599  80  10  739
1477481773.825:   -615  80  10  739
1477481773.825:   -631  80  10  739
1477481773.825:   -643  80  10  739
1477481773.830:   -654  80  10  739
1477481773.846:   -671  80  10  739
1477481773.847:   -699  80  10  739
1477481773.847:   -731  80  10  739
1477481773.847:   -756  80  10  739
1477481773.847:   -770  80  10  739
1477481773.848:   -781  80  10  739
1477481773.848:   -803  80  10  739
1477481773.848:   -839  80  10  739
1477481773.849:   -882  80  10  739
1477481773.853:   -916  80  10  739
1477481773.854:   -932  80  10  739
1477481773.859:   -935  80  10  739
1477481773.860:   -939  80  10  739
1477481773.861:   -955  80  10  739
1477481773.863:   -987  80  10  739
1477481773.865:  -1024  80  10  739
1477481773.866:  -1056  80  10  739
1477481773.867:  -1081  80  10  739
1477481773.868:  -1105  80  10  739
1477481773.872:  -1134  80  10  739
1477481773.873:  -1172  80  10  739
1477481773.875:  -1219  80  10  739
1477481773.891:  -1269  80  10  739
1477481773.891:  -1316  80  10  739
1477481773.891:  -1350  80  10  739
1477481773.891:  -1372  80  10  739
1477481773.892:  -1391  80  10  739
1477481773.892:  -1418  80  10  739
1477481773.892:  -1449  80  10  739
1477481773.892:  -1473  80  10  739
1477481773.896:  -1481  80  10  739
1477481773.898:  -1480  80  10  739
1477481773.902:  -1483  80  10  739
1477481773.903:  -1501  80  10  739
1477481773.931:  -1525  80  10  739
1477481773.932:  -1546  80  10  739
1477481773.933:  -1556  80  10  739
1477481773.933:  -1560  80  10  739
1477481773.934:  -1561  80  10  739
1477481773.935:  -1557  80  10  739
1477481773.936:  -1546  80  10  739
1477481773.936:  -1533  80  10  739
1477481773.937:  -1521  80  10  739
1477481773.939:  -1511  80  10  739
1477481773.940:  -1493  80  10  739
1477481773.941:  -1462  80  10  739
1477481773.941:  -1425  80  10  739
1477481773.942:  -1396  80  10  739
1477481773.942:  -1378  80  10  739
1477481773.943:  -1359  80  10  739
1477481773.944:  -1323  80  10  739
1477481773.944:  -1263  80  10  739
1477481773.944:  -1189  80  10  739
1477481773.945:  -1117  80  10  739
1477481773.945:  -1055  80  10  739
1477481773.946:   -995  80  10  739
1477481773.946:   -928  80  10  739
1477481773.947:   -849  80  10  739
1477481773.947:   -763  80  10  739
1477481773.948:   -681  80  10  739
1477481773.949:   -612  80  10  739
1477481773.949:   -553  80  10  739
1477481773.952:   -493  80  10  739
1477481773.953:   -423  80  10  739
1477481773.971:   -341  80  10  739
1477481773.972:   -256  80  10  739
1477481773.972:   -174  80  10  739
1477481773.973:    -97  80  10  739
1477481773.973:    -22  80  10  739
1477481773.973:     52  80  10  739
1477481773.973:    126  80  10  739
1477481773.975:    202  80  10  739
1477481773.975:    278  80  10  739
1477481773.976:    347  80  10  739
1477481773.976:    402  80  10  739
1477481773.977:    445  80  10  739
1477481773.979:    488  80  10  739
1477481773.982:    542  80  10  739
1477481773.994:    606  80  10  739
1477481773.995:    663  80  10  739
1477481773.998:    705  80  10  739
1477481773.998:    738  80  10  739
1477481773.998:    776  80  10  739
1477481773.998:    827  80  10  739
1477481773.999:    880  80  10  739
1477481774.000:    922  80  10  739
1477481774.002:    948  80  10  739
1477481774.003:    964  80  10  739
1477481774.016:    978  80  10  739
1477481774.016:    994  80  10  739
1477481774.019:   1011  80  10  739
1477481774.019:   1023  80  10  739
1477481774.021:   1027  80  10  739
1477481774.021:   1022  80  10  739
1477481774.022:   1017  80  10  739
1477481774.023:   1022  80  10  739
1477481774.035:   1036  80  10  739
1477481774.036:   1052  80  10  739
1477481774.037:   1057  80  10  739
1477481774.037:   1048  80  10  739
1477481774.040:   1035  81  10  734
1477481774.041:   1029  81  10  734
1477481774.041:   1033  81  10  734
1477481774.042:   1038  81  10  734
1477481774.043:   1031  81  10  734
1477481774.044:   1016  81  10  734
1477481774.044:   1000  81  10  734
1477481774.070:    990  81  10  734
1477481774.073:    981  81  10  734
1477481774.074:    966  81  10  734
1477481774.078:    945  81  10  734
1477481774.079:    927  81  10  734
1477481774.079:    915  81  10  734
1477481774.079:    902  81  10  734
1477481774.079:    876  81  10  734
1477481774.080:    841  81  10  734
1477481774.080:    816  81  10  734
1477481774.080:    812  81  10  734
1477481774.080:    819  81  10  734
1477481774.081:    812  81  10  734
1477481774.081:    779  81  10  734
1477481774.081:    734  81  10  734
1477481774.081:    699  81  10  734
1477481774.081:    682  81  10  734
1477481774.082:    671  81  10  734
1477481774.082:    650  81  10  734
1477481774.083:    617  81  10  734
1477481774.089:    583  81  10  734
1477481774.107:    556  81  10  734
1477481774.107:    538  81  10  734
1477481774.107:    528  81  10  734
1477481774.108:    522  81  10  734
1477481774.108:    518  81  10  734
1477481774.108:    515  81  10  734
1477481774.109:    510  81  10  734
1477481774.109:    504  81  10  734
1477481774.110:    499  81  10  734
1477481774.110:    493  81  10  734
1477481774.110:    485  81  10  734
1477481774.110:    471  81  10  734
1477481774.111:    451  81  10  734
1477481774.111:    427  81  10  734
1477481774.111:    402  81  10  734
1477481774.113:    379  81  10  734
1477481774.113:    363  81  10  734
1477481774.115:    353  81  10  734
1477481774.116:    348  81  10  734
1477481774.119:    342  81  10  734
1477481774.130:    334  81  10  734
1477481774.130:    325  81  10  734
1477481774.130:    317  81  10  734
1477481774.130:    313  81  10  734
1477481774.130:    310  81  10  734
1477481774.132:    304  81  10  734
1477481774.133:    293  81  10  734
1477481774.134:    282  81  10  734
1477481774.137:    274  81  10  734
1477481774.142:    272  81  10  734
1477481774.151:    272  81  10  734
1477481774.151:    271  81  10  734
1477481774.152:    267  81  10  734
1477481774.153:    267  81  10  734
1477481774.153:    272  81  10  734
1477481774.158:    277  81  10  734
1477481774.158:    278  81  10  734
1477481774.159:    272  81  10  734
1477481774.172:    266  81  10  734
1477481774.173:    266  81  10  734
1477481774.174:    270  81  10  734
1477481774.174:    276  81  10  734
1477481774.175:    283  81  10  734
1477481774.176:    295  81  10  734
1477481774.177:    308  81  10  734
1477481774.179:    313  81  10  734
1477481774.196:    307  81  10  734
1477481774.197:    299  81  10  734
1477481774.197:    302  81  10  734
1477481774.197:    317  81  10  734
1477481774.197:    326  81  10  734
1477481774.197:    314  81  10  734
1477481774.197:    286  81  10  734
1477481774.197:    265  81  10  734
1477481774.198:    263  81  10  734
1477481774.198:    276  81  10  734
1477481774.198:    285  81  10  734
1477481774.199:    280  81  10  734
1477481774.199:    269  81  10  734
1477481774.199:    267  81  10  734
1477481774.203:    275  81  10  734
1477481774.204:    283  81  10  734
1477481774.205:    281  81  10  734
1477481774.206:    272  81  10  734
1477481774.213:    261  81  10  734
1477481774.214:    251  81  10  734
1477481774.227:    236  81  10  734
1477481774.228:    208  81  10  734
1477481774.228:    175  81  10  734
1477481774.228:    148  81  10  734
1477481774.228:    130  81  10  734
1477481774.228:    107  81  10  734
1477481774.229:     66  81  10  734
1477481774.229:     15  81  10  734
1477481774.229:    -23  81  10  734
1477481774.230:    -37  81  10  734
1477481774.230:    -48  81  10  734
1477481774.233:    -88  81  10  734
1477481774.238:   -168  81  10  734
1477481774.242:   -257  81  10  734
1477481774.249:   -317  81  10  734
1477481774.250:   -341  81  10  734
1477481774.252:   -357  81  10  734
1477481774.252:   -387  81  10  734
1477481774.253:   -426  81  10  734
1477481774.253:   -441  81  10  734
1477481774.254:   -413  81  10  734
1477481774.255:   -346  81  10  734
1477481774.270:   -260  81  10  734
1477481774.271:   -171  81  10  734
1477481774.271:    -84  81  10  734
1477481774.271:     -2  81  10  734
1477481774.271:     68  81  10  734
1477481774.271:    126  81  10  734
1477481774.271:    178  81  10  734
1477481774.272:    220  81  10  734
1477481774.272:    242  81  10  734
1477481774.272:    240  81  10  734
1477481774.272:    225  81  10  734
1477481774.275:    220  81  10  734
1477481774.278:    237  81  10  734
1477481774.299:    267  81  10  734
1477481774.308:    297  81  10  734
1477481774.308:    325  81  10  734
1477481774.308:    360  81  10  734
1477481774.309:    405  81  10  734
1477481774.309:    445  81  10  734
1477481774.310:    465  81  10  734
1477481774.310:    468  81  10  734
1477481774.310:    472  81  10  734
1477481774.310:    487  81  10  734
1477481774.310:    504  81  10  734
1477481774.314:    505  81  10  734
1477481774.314:    486  81  10  734
1477481774.314:    467  81  10  734
1477481774.315:    468  81  10  734
1477481774.315:    487  81  10  734
1477481774.315:    502  81  10  734
1477481774.316:    499  81  10  734
1477481774.316:    483  81  10  734
1477481774.327:    474  81  10  734
1477481774.328:    479  81  10  734
1477481774.328:    489  81  10  734
1477481774.329:    490  81  10  734
1477481774.329:    480  81  10  734
1477481774.329:    466  81  10  734
1477481774.330:    459  81  10  734
1477481774.330:    459  81  10  734
1477481774.332:    464  81  10  734
1477481774.340:    467  81  10  734
1477481774.423:    465  81  10  734
1477481774.423:    460  81  10  734
1477481774.423:    455  81  10  734
1477481774.423:    449  81  10  734
1477481774.423:    443  81  10  734
1477481774.423:    435  81  10  734
1477481774.423:    425  81  10  734
1477481774.424:    416  81  10  734
1477481774.424:    411  81  10  734
1477481774.424:    406  81  10  734
1477481774.424:    391  81  10  734
1477481774.424:    360  81  10  734
1477481774.424:    319  81  10  734
1477481774.424:    283  81  10  734
1477481774.424:    261  81  10  734
1477481774.425:    239  81  10  734
1477481774.425:    199  81  10  734
1477481774.425:    145  81  10  734
1477481774.425:    117  81  10  734
1477481774.425:    145  81  10  734
1477481774.425:    198  81  10  734
1477481774.425:    203  81  10  734
1477481774.426:    120  81  10  734
1477481774.426:    -10  81  10  734
1477481774.426:   -136  81  10  734
1477481774.426:   -297  81  10  734
1477481774.426:   -618  81  10  734
1477481774.426:  -1162  81  10  734
1477481774.426:  -1834  81  10  734
1477481774.427:  -2473  81  10  734
1477481774.427:  -3028  81  10  734
1477481774.427:  -3580  81  10  734
1477481774.427:  -4157  81  10  734
1477481774.427:  -4583  81  10  734
1477481774.427:  -4590  81  10  734
1477481774.427:  -4089  81  10  734
1477481774.428:  -3249  81  10  734
1477481774.428:  -2253  81  10  734
1477481774.428:  -1040  81  10  734
1477481774.429:    612  81  10  734
1477481774.430:   2726  81  10  734
1477481774.430:   4919  81  10  734
1477481774.430:   6649  81  10  734
1477481774.431:   7647  81  10  734
1477481774.431:   8064  81  10  734
1477481774.431:   8195  81  10  734
1477481774.432:   8114  81  10  734
1477481774.432:   7641  81  10  734
1477481774.433:   6629  81  10  734
1477481774.433:   5218  81  10  734
1477481774.436:   3770  81  10  734
1477481774.437:   2605  81  10  734
1477481774.439:   1814  81  10  734
1477481774.440:   1311  81  10  734
1477481774.443:    994  81  10  734
1477481774.448:    815  81  10  734
1477481774.449:    749  81  10  734
1477481774.449:    747  81  10  734
1477481774.450:    742  81  10  734
1477481774.451:    695  81  10  734
1477481774.474:    605  81  10  734
1477481774.475:    475  81  10  734
1477481774.475:    299  81  10  734
1477481774.476:     75  81  10  734
1477481774.476:   -162  81  10  734
1477481774.476:   -353  81  10  734
1477481774.477:   -450  81  10  734
1477481774.477:   -444  81  10  734
1477481774.477:   -369  81  10  734
1477481774.478:   -273  81  10  734
1477481774.479:   -208  81  10  734
1477481774.480:   -207  81  10  734
1477481774.480:   -274  81  10  734
1477481774.481:   -380  81  10  734
1477481774.481:   -475  81  10  734
1477481774.484:   -522  81  10  734
1477481774.497:   -522  81  10  734
1477481774.497:   -504  81  10  734
1477481774.498:   -489  81  10  734
1477481774.498:   -474  81  10  734
1477481774.498:   -444  81  10  734
1477481774.498:   -403  81  10  734
1477481774.499:   -377  81  10  734
1477481774.500:   -394  81  10  734
1477481774.502:   -445  81  10  734
1477481774.503:   -490  81  10  734
1477481774.514:   -493  81  10  734
1477481774.515:   -461  81  10  734
1477481774.516:   -432  81  10  734
1477481774.517:   -431  81  10  734
1477481774.517:   -447  81  10  734
1477481774.518:   -451  81  10  734
1477481774.519:   -435  81  10  734
1477481774.525:   -422  81  10  734
1477481774.532:   -430  81  10  734
1477481774.533:   -453  81  10  734
1477481774.534:   -462  81  10  734
1477481774.534:   -448  81  10  734
1477481774.535:   -429  81  10  734
1477481774.536:   -428  81  10  734
1477481774.536:   -447  81  10  734
1477481774.538:   -468  81  10  734
1477481774.550:   -477  81  10  734
1477481774.551:   -482  81  10  734
1477481774.551:   -497  81  10  734
1477481774.551:   -522  81  10  734
1477481774.552:   -540  81  10  734
1477481774.552:   -542  81  10  734
1477481774.552:   -538  81  10  734
1477481774.562:   -548  81  10  734
1477481774.570:   -573  81  10  734
1477481774.570:   -602  81  10  734
1477481774.570:   -623  81  10  734
1477481774.570:   -634  81  10  734
1477481774.571:   -648  81  10  734
1477481774.571:   -668  81  10  734
1477481774.571:   -693  81  10  734
1477481774.571:   -716  81  10  734
1477481774.571:   -740  81  10  734
1477481774.571:   -764  81  10  734
1477481774.572:   -787  81  10  734
1477481774.575:   -805  81  10  734
1477481774.575:   -825  81  10  734
1477481774.581:   -858  81  10  734
1477481774.581:   -905  81  10  734
1477481774.582:   -951  81  10  734
1477481774.583:   -984  81  10  734
1477481774.586:  -1006  81  10  734
1477481774.610:  -1037  81  10  734
1477481774.610:  -1083  81  10  734
1477481774.610:  -1131  81  10  734
1477481774.610:  -1156  81  10  734
1477481774.610:  -1162  81  10  734
1477481774.610:  -1175  81  10  734
1477481774.611:  -1216  81  10  734
1477481774.611:  -1275  81  10  734
1477481774.611:  -1320  86  11  714
1477481774.611:  -1337  86  11  714
1477481774.611:  -1344  86  11  714
1477481774.612:  -1370  86  11  714
1477481774.613:  -1423  86  11  714
1477481774.644:  -1478  86  11  714
1477481774.644:  -1508  86  11  714
1477481774.646:  -1512  86  11  714
1477481774.647:  -1512  86  11  714
1477481774.648:  -1525  86  11  714
1477481774.666:  -1550  86  11  714
1477481774.667:  -1569  86  11  714
1477481774.667:  -1569  86  11  714
1477481774.668:  -1558  86  11  714
1477481774.668:  -1546  86  11  714
1477481774.668:  -1536  86  11  714
1477481774.669:  -1523  86  11  714
1477481774.669:  -1501  86  11  714
1477481774.670:  -1475  86  11  714
1477481774.670:  -1446  86  11  714
1477481774.671:  -1412  86  11  714
1477481774.671:  -1367  86  11  714
1477481774.671:  -1315  86  11  714
1477481774.672:  -1265  86  11  714
1477481774.672:  -1221  86  11  714
1477481774.673:  -1179  86  11  714
1477481774.673:  -1131  86  11  714
1477481774.673:  -1074  86  11  714
1477481774.674:  -1013  86  11  714
1477481774.674:   -949  86  11  714
1477481774.674:   -879  86  11  714
1477481774.675:   -803  86  11  714
1477481774.675:   -726  86  11  714
1477481774.676:   -652  86  11  714
1477481774.676:   -574  86  11  714
1477481774.676:   -483  86  11  714
1477481774.677:   -382  86  11  714
1477481774.678:   -287  86  11  714
1477481774.689:   -209  86  11  714
1477481774.690:   -139  86  11  714
1477481774.691:    -59  86  11  714
1477481774.691:     39  86  11  714
1477481774.692:    138  86  11  714
1477481774.692:    217  86  11  714
1477481774.693:    275  86  11  714
1477481774.696:    329  86  11  714
1477481774.720:    394  86  11  714
1477481774.720:    467  86  11  714
1477481774.720:    534  86  11  714
1477481774.720:    586  86  11  714
1477481774.720:    631  86  11  714
1477481774.721:    681  86  11  714
1477481774.721:    738  86  11  714
1477481774.721:    796  86  11  714
1477481774.721:    845  86  11  714
1477481774.722:    881  86  11  714
1477481774.722:    911  86  11  714
1477481774.722:    947  86  11  714
1477481774.722:    991  86  11  714
1477481774.723:   1035  86  11  714
1477481774.723:   1064  86  11  714
1477481774.724:   1076  86  11  714
1477481774.727:   1081  86  11  714
1477481774.727:   1092  86  11  714
1477481774.732:   1113  86  11  714
1477481774.732:   1136  86  11  714
1477481774.733:   1151  86  11  714
1477481774.736:   1158  86  11  714
1477481774.741:   1165  86  11  714
1477481774.742:   1177  86  11  714
1477481774.774:   1190  86  11  714
1477481774.775:   1195  86  11  714
1477481774.775:   1192  86  11  714
1477481774.775:   1186  86  11  714
1477481774.775:   1182  86  11  714
1477481774.775:   1173  86  11  714
1477481774.775:   1153  86  11  714
1477481774.776:   1125  86  11  714
1477481774.776:   1102  86  11  714
1477481774.776:   1095  86  11  714
1477481774.776:   1095  86  11  714
1477481774.777:   1083  86  11  714
1477481774.777:   1053  86  11  714
1477481774.777:   1017  86  11  714
1477481774.777:    997  86  11  714
1477481774.777:    998  86  11  714
1477481774.778:   1005  86  11  714
1477481774.781:    998  86  11  714
1477481774.782:    975  86  11  714
1477481774.782:    952  86  11  714
1477481774.784:    939  86  11  714
1477481774.785:    931  86  11  714
1477481774.786:    915  86  11  714
1477481774.787:    891  86  11  714
1477481774.800:    872  86  11  714
1477481774.801:    861  86  11  714
1477481774.802:    851  86  11  714
1477481774.802:    828  86  11  714
1477481774.803:    795  86  11  714
1477481774.804:    769  86  11  714
1477481774.804:    760  86  11  714
1477481774.805:    756  86  11  714
1477481774.806:    738  86  11  714
1477481774.807:    701  86  11  714
1477481774.808:    661  86  11  714
1477481774.810:    638  86  11  714
1477481774.821:    635  86  11  714
1477481774.822:    638  86  11  714
1477481774.823:    630  86  11  714
1477481774.823:    611  86  11  714
1477481774.824:    593  86  11  714
1477481774.825:    583  86  11  714
1477481774.827:    578  86  11  714
1477481774.827:    571  86  11  714
1477481774.829:    560  86  11  714
1477481774.831:    550  86  11  714
1477481774.852:    541  86  11  714
1477481774.853:    527  86  11  714
1477481774.855:    502  86  11  714
1477481774.856:    471  86  11  714
1477481774.857:    450  86  11  714
1477481774.857:    442  86  11  714
1477481774.858:    438  86  11  714
1477481774.859:    424  86  11  714
1477481774.861:    403  86  11  714
1477481774.861:    385  86  11  714
1477481774.862:    376  86  11  714
1477481774.863:    372  86  11  714
1477481774.863:    361  86  11  714
1477481774.865:    341  86  11  714
1477481774.880:    322  86  11  714
1477481774.881:    310  86  11  714
1477481774.882:    304  86  11  714
1477481774.882:    298  86  11  714
1477481774.883:    289  86  11  714
1477481774.884:    282  86  11  714
1477481774.884:    283  86  11  714
1477481774.885:    296  86  11  714
1477481774.887:    312  86  11  714
1477481774.888:    320  86  11  714
1477481774.898:    313  86  11  714
1477481774.898:    294  86  11  714
1477481774.900:    275  86  11  714
1477481774.901:    269  86  11  714
1477481774.901:    273  86  11  714
1477481774.901:    274  86  11  714
1477481774.902:    261  86  11  714
1477481774.902:    236  86  11  714
1477481774.902:    215  86  11  714
1477481774.903:    216  86  11  714
1477481774.904:    236  86  11  714
1477481774.905:    259  86  11  714
1477481774.905:    270  86  11  714
1477481774.905:    269  86  11  714
1477481774.917:    270  86  11  714
1477481775.005:    284  86  11  714
1477481775.013:    307  86  11  714
1477481775.014:    324  86  11  714
1477481775.014:    326  86  11  714
1477481775.014:    318  86  11  714
1477481775.014:    316  86  11  714
1477481775.014:    323  86  11  714
1477481775.014:    329  86  11  714
1477481775.014:    322  86  11  714
1477481775.014:    299  86  11  714
1477481775.015:    271  86  11  714
1477481775.015:    248  86  11  714
1477481775.015:    231  86  11  714
1477481775.015:    215  86  11  714
1477481775.015:    198  86  11  714
1477481775.015:    181  86  11  714
1477481775.016:    161  86  11  714
1477481775.016:    137  86  11  714
1477481775.016:    115  86  11  714
1477481775.016:    101  86  11  714
1477481775.016:     93  86  11  714
1477481775.017:     76  86  11  714
1477481775.017:     40  86  11  714
1477481775.017:     -6  86  11  714
1477481775.017:    -38  86  11  714
1477481775.017:    -50  86  11  714
1477481775.017:    -61  86  11  714
1477481775.017:   -103  86  11  714
1477481775.018:   -183  86  11  714
1477481775.018:   -271  86  11  714
1477481775.018:   -333  86  11  714
1477481775.018:   -363  86  11  714
1477481775.018:   -386  86  11  714
1477481775.019:   -424  86  11  714
1477481775.019:   -469  86  11  714
1477481775.019:   -488  86  11  714
1477481775.019:   -454  86  11  714
1477481775.019:   -370  86  11  714
1477481775.019:   -268  86  11  714
1477481775.020:   -178  86  11  714
1477481775.020:   -108  86  11  714
1477481775.020:    -47  86  11  714
1477481775.020:     19  86  11  714
1477481775.021:     89  86  11  714
1477481775.021:    149  86  11  714
1477481775.021:    186  86  11  714
1477481775.021:    200  86  11  714
1477481775.021:    202  86  11  714
1477481775.021:    203  86  11  714
1477481775.022:    214  86  11  714
1477481775.022:    240  86  11  714
1477481775.022:    278  86  11  714
1477481775.022:    323  86  11  714
1477481775.022:    366  86  11  714
1477481775.022:    399  86  11  714
1477481775.022:    424  86  11  714
1477481775.022:    452  86  11  714
1477481775.023:    485  86  11  714
1477481775.032:    512  86  11  714
1477481775.050:    523  86  11  714
1477481775.051:    520  86  11  714
1477481775.052:    514  86  11  714
1477481775.052:    514  86  11  714
1477481775.053:    520  86  11  714
1477481775.053:    526  86  11  714
1477481775.054:    527  86  11  714
1477481775.054:    526  86  11  714
1477481775.054:    524  86  11  714
1477481775.057:    520  86  11  714
1477481775.057:    514  86  11  714
1477481775.058:    510  86  11  714
1477481775.070:    511  86  11  714
1477481775.071:    513  86  11  714
1477481775.072:    509  86  11  714
1477481775.072:    498  86  11  714
1477481775.073:    486  86  11  714
1477481775.074:    479  86  11  714
1477481775.074:    479  86  11  714
1477481775.075:    479  86  11  714
1477481775.075:    474  86  11  714
1477481775.076:    466  86  11  714
1477481775.077:    459  86  11  714
1477481775.080:    455  86  11  714
1477481775.104:    454  86  11  714
1477481775.104:    456  86  11  714
1477481775.105:    457  86  11  714
1477481775.106:    453  86  11  714
1477481775.106:    441  86  11  714
1477481775.107:    426  86  11  714
1477481775.108:    410  86  11  714
1477481775.108:    390  86  11  714
1477481775.109:    359  86  11  714
1477481775.109:    322  86  11  714
1477481775.109:    293  86  11  714
1477481775.109:    278  86  11  714
1477481775.109:    266  86  11  714
1477481775.109:    242  86  11  714
1477481775.110:    213  86  11  714
1477481775.110:    214  86  11  714
1477481775.111:    253  86  11  714
1477481775.111:    284  86  11  714
1477481775.112:    247  86  11  714
1477481775.114:    140  86  11  714
1477481775.126:     16  86  11  714
1477481775.126:   -114  86  11  714
1477481775.126:   -344  86  11  714
1477481775.127:   -780  86  11  714
1477481775.127:  -1405  86  11  714
1477481775.127:  -2077  86  11  714
1477481775.129:  -2682  86  11  714
1477481775.129:  -3249  86  11  714
1477481775.130:  -3848  86  11  714
1477481775.130:  -4390  86  11  714
1477481775.133:  -4615  86  11  714
1477481775.133:  -4329  86  11  714
1477481775.135:  -3604  86  11  714
1477481775.138:  -2654  86  11  714
1477481775.144:  -1539  86  11  714
1477481775.146:    -73  86  11  714
1477481775.147:   1889  86  11  714
1477481775.152:   4134  86  11  714
1477481775.164:   6138  86  11  714
1477481775.165:   7475  86  11  714
1477481775.166:   8124  86  11  714
1477481775.166:   8360  86  11  714
1477481775.167:   8371  86  11  714
1477481775.167:   8070  86  11  714
1477481775.168:   7276  86  11  714
1477481775.169:   6000  86  11  714
1477481775.170:   4528  86  11  714
1477481775.172:   3212  86  11  714
1477481775.173:   2245  86  11  714
1477481775.174:   1612  86  11  714
1477481775.174:   1212  86  11  714
1477481775.176:    975  86  11  714
1477481775.176:    863  86  11  714
1477481775.176:    838  86  11  714
1477481775.184:    843  86  11  714
1477481775.185:    826  86  11  714
1477481775.211:    759  86  11  714
1477481775.211:    637  86  11  714
1477481775.212:    465  86  11  714
1477481775.212:    256  86  11  714
1477481775.212:     37  86  11  714
1477481775.212:   -157  86  11  714
1477481775.212:   -290  86  11  714
1477481775.213:   -342  86  11  714
1477481775.213:   -317  86  11  714
1477481775.213:   -240  86  11  714
1477481775.214:   -156  86  11  714
1477481775.214:   -110  86  11  714
1477481775.214:   -129  86  11  714
1477481775.214:   -203  86  11  714
1477481775.215:   -297  86  11  714
1477481775.215:   -376  86  11  714
1477481775.215:   -416  86  11  714
1477481775.215:   -419  86  11  714
1477481775.215:   -398  86  11  714
1477481775.218:   -367  86  11  714
1477481775.219:   -337  86  11  714
1477481775.224:   -316  86  11  714
1477481775.226:   -312  86  11  714
1477481775.228:   -330  86  11  714
1477481775.230:   -362  86  11  714
1477481775.231:   -389  86  11  714
1477481775.233:   -393  86  11  714
1477481775.234:   -377  86  11  714
1477481775.236:   -356  86  11  714
1477481775.238:   -347  86  11  714
1477481775.253:   -349  86  11  714
1477481775.254:   -355  86  11  714
1477481775.256:   -357  86  11  714
1477481775.256:   -364  86  11  714
1477481775.258:   -380  86  11  714
1477481775.259:   -402  86  11  714
1477481775.260:   -419  86  11  714
1477481775.261:   -426  86  11  714
1477481775.262:   -427  86  11  714
1477481775.263:   -428  86  11  714
1477481775.264:   -431  86  11  714
1477481775.265:   -431  86  11  714
1477481775.294:   -433  86  11  714
1477481775.295:   -441  86  11  714
1477481775.296:   -460  86  11  714
1477481775.297:   -483  86  11  714
1477481775.298:   -500  86  11  714
1477481775.298:   -509  86  11  714
1477481775.299:   -517  86  11  714
1477481775.300:   -531  86  11  714
1477481775.300:   -551  86  11  714
1477481775.301:   -573  86  11  714
1477481775.302:   -593  86  11  714
1477481775.302:   -614  86  11  714
1477481775.303:   -636  86  11  714
1477481775.303:   -658  86  11  714
1477481775.304:   -677  86  11  714
1477481775.305:   -694  86  11  714
1477481775.305:   -716  86  11  714
1477481775.306:   -745  86  11  714
1477481775.307:   -776  86  11  714
1477481775.308:   -801  86  11  714
1477481775.308:   -820  86  11  714
1477481775.314:   -839  86  11  714
1477481775.332:   -866  86  11  714
1477481775.333:   -905  86  11  714
1477481775.334:   -949  86  11  714
1477481775.335:   -991  86  11  714
1477481775.336:  -1028  86  11  714
1477481775.336:  -1059  86  11  714
1477481775.337:  -1089  86  11  714
1477481775.339:  -1124  86  11  714
1477481775.340:  -1164  86  11  714
1477481775.341:  -1209  86  11  714
1477481775.343:  -1250  86  11  714
1477481775.343:  -1280  86  11  714
1477481775.361:  -1302  86  11  714
1477481775.361:  -1325  86  11  714
1477481775.361:  -1356  86  11  714
1477481775.362:  -1389  86  11  714
1477481775.362:  -1411  86  11  714
1477481775.362:  -1418  86  11  714
1477481775.362:  -1421  86  11  714
1477481775.362:  -1434  86  11  714
1477481775.363:  -1454  86  11  714
1477481775.363:  -1470  86  11  714
1477481775.363:  -1472  86  11  714
1477481775.363:  -1469  86  11  714
1477481775.364:  -1472  86  11  714
1477481775.364:  -1484  86  11  714
1477481775.364:  -1489  86  11  714
1477481775.365:  -1481  86  11  714
1477481775.365:  -1462  86  11  714
1477481775.365:  -1446  86  11  714
1477481775.366:  -1433  86  11  714
1477481775.370:  -1414  86  11  714
1477481775.370:  -1385  86  11  714
1477481775.372:  -1349  86  11  714
1477481775.373:  -1313  86  11  714
1477481775.374:  -1276  86  11  714
1477481775.377:  -1231  86  11  714
1477481775.380:  -1178  86  11  714
1477481775.395:  -1124  86  11  714
1477481775.396:  -1075  86  11  714
1477481775.397:  -1029  86  11  714
1477481775.398:   -973  86  11  714
1477481775.399:   -905  86  11  714
1477481775.400:   -831  86  11  714
1477481775.402:   -761  86  11  714
1477481775.402:   -698  86  11  714
1477481775.402:   -631  86  11  714
1477481775.403:   -555  86  11  714
1477481775.403:   -474  86  11  714
1477481775.404:   -394  86  11  714
1477481775.407:   -318  86  11  714
1477481775.408:   -243  86  11  714
1477481775.419:   -162  86  11  714
1477481775.420:    -74  86  11  714
1477481775.421:     14  86  11  714
1477481775.421:     99  86  11  714
1477481775.422:    179  86  11  714
1477481775.423:    257  86  11  714
1477481775.423:    330  86  11  714
1477481775.426:    399  86  11  714
1477481775.426:    463  86  11  714
1477481775.427:    524  86  11  714
1477481775.428:    580  86  11  714
1477481775.432:    628  86  11  714
1477481775.433:    667  86  11  714
1477481775.435:    706  86  11  714
1477481775.435:    754  86  11  714
1477481775.438:    810  86  11  714
1477481775.469:    861  86  11  714
1477481775.469:    897  86  11  714
1477481775.470:    921  86  11  714
1477481775.470:    945  86  11  714
1477481775.470:    978  86  11  714
1477481775.470:   1014  86  11  714
1477481775.471:   1037  86  11  714
1477481775.471:   1041  86  11  714
1477481775.471:   1036  86  11  714
1477481775.471:   1034  86  11  714
1477481775.471:   1040  86  11  714
1477481775.472:   1050  86  11  714
1477481775.472:   1058  86  11  714
1477481775.472:   1064  86  11  714
1477481775.473:   1068  86  11  714
1477481775.473:   1070  86  11  714
1477481775.473:   1069  86  11  714
1477481775.475:   1063  86  11  714
1477481775.475:   1054  86  11  714
1477481775.477:   1047  86  11  714
1477481775.480:   1041  86  11  714
1477481775.480:   1034  86  11  714
1477481775.485:   1023  86  11  714
1477481775.485:   1009  86  11  714
1477481775.487:   1002  86  11  714
1477481775.491:   1003  86  11  714
1477481775.508:   1005  86  11  714
1477481775.508:   1003  86  11  714
1477481775.508:    994  86  11  714
1477481775.508:    984  86  11  714
1477481775.508:    977  86  11  714
1477481775.508:    968  86  11  714
1477481775.509:    950  86  11  714
1477481775.509:    928  86  11  714
1477481775.509:    909  86  11  714
1477481775.512:    895  86  11  714
1477481775.513:    876  86  11  714
1477481775.513:    845  86  11  714
1477481775.514:    807  86  11  714
1477481775.517:    777  86  11  714
1477481775.518:    758  86  11  714
1477481775.521:    742  86  11  714
1477481775.523:    718  86  11  714
1477481775.524:    688  86  11  714
1477481775.525:    664  86  11  714
1477481775.531:    649  86  11  714
1477481775.539:    636  86  11  714
1477481775.540:    617  86  11  714
1477481775.541:    596  86  11  714
1477481775.541:    582  86  11  714
1477481775.541:    574  86  11  714
1477481775.542:    561  86  11  714
1477481775.542:    539  86  11  714
1477481775.544:    514  86  11  714
1477481775.546:    499  86  11  714
1477481775.548:    497  86  11  714
1477481775.558:    494  86  11  714
1477481775.558:    481  86  11  714
1477481775.558:    457  86  11  714
1477481775.558:    435  86  11  714
1477481775.558:    420  86  11  714
1477481775.559:    410  86  11  714
1477481775.562:    398  86  11  714
1477481775.564:    381  86  11  714
1477481775.566:    364  86  11  714
1477481775.568:    353  86  11  714
1477481775.579:    350  86  11  714
1477481775.579:    354  86  11  714
1477481775.579:    359  86  11  714
1477481775.580:    361  86  11  714
1477481775.580:    357  86  11  714
1477481775.580:    349  86  11  714
1477481775.582:    338  86  11  714
1477481775.583:    324  86  11  714
1477481775.585:    306  86  11  714
1477481775.589:    286  86  11  714
1477481775.600:    268  86  11  714
1477481775.601:    258  86  11  714
1477481775.601:    255  86  11  714
1477481775.604:    259  86  11  714
1477481775.605:    270  86  11  714
1477481775.606:    284  86  11  714
1477481775.608:    291  86  11  714
1477481775.608:    285  86  11  714
1477481775.610:    271  86  11  714
1477481775.611:    259  86  11  714
1477481775.620:    258  86  11  714
1477481775.624:    259  86  11  714
1477481775.625:    248  86  11  714
1477481775.627:    224  86  11  714
1477481775.627:    203  86  11  714
1477481775.627:    205  86  11  714
1477481775.627:    233  86  11  714
1477481775.627:    268  86  11  714
1477481775.630:    290  86  11  714
1477481775.630:    300  86  11  714
1477481775.642:    309  86  11  714
1477481775.642:    323  86  11  714
1477481775.642:    336  86  11  714
1477481775.642:    337  86  11  714
1477481775.642:    330  86  11  714
1477481775.797:    326  86  11  714
1477481775.809:    332  86  11  714
1477481775.809:    339  86  11  714
1477481775.809:    335  86  11  714
1477481775.809:    323  86  11  714
1477481775.809:    316  86  11  714
1477481775.810:    323  86  11  714
1477481775.810:    332  86  11  714
1477481775.810:    324  86  11  714
1477481775.810:    297  86  11  714
1477481775.810:    264  86  11  714
1477481775.811:    245  86  11  714
1477481775.811:    244  86  11  714
1477481775.811:    245  86  11  714
1477481775.811:    230  86  11  714
1477481775.811:    198  86  11  714
1477481775.812:    166  86  11  714
1477481775.812:    154  86  11  714
1477481775.812:    157  86  11  714
1477481775.812:    149  86  11  714
1477481775.812:    107  86  11  714
1477481775.813:     43  86  11  714
1477481775.813:     -7  86  11  714
1477481775.813:    -19  86  11  714
1477481775.813:    -17  86  11  714
1477481775.813:    -44  86  11  714
1477481775.814:   -122  86  11  714
1477481775.814:   -219  86  11  714
1477481775.815:   -284  86  11  714
1477481775.815:   -296  86  11  714
1477481775.815:   -289  86  11  714
1477481775.815:   -308  86  11  714
1477481775.816:   -360  86  11  714
1477481775.816:   -406  86  11  714
1477481775.816:   -398  86  11  714
1477481775.816:   -325  86  11  714
1477481775.816:   -219  86  11  714
1477481775.817:   -124  86  11  714
1477481775.817:    -58  86  11  714
1477481775.817:    -10  86  11  714
1477481775.817:     39  86  11  714
1477481775.817:    100  86  11  714
1477481775.818:    159  86  11  714
1477481775.818:    199  86  11  714
1477481775.818:    216  86  11  714
1477481775.818:    219  86  11  714
1477481775.819:    224  86  11  714
1477481775.819:    236  86  11  714
1477481775.820:    257  86  11  714
1477481775.820:    285  86  11  714
1477481775.820:    324  86  11  714
1477481775.820:    380  86  11  714
1477481775.821:    444  86  11  714
1477481775.821:    496  86  11  714
1477481775.821:    524  86  11  714
1477481775.821:    529  86  11  714
1477481775.822:    525  86  11  714
1477481775.822:    525  86  11  714
1477481775.822:    533  86  11  714
1477481775.822:    539  86  11  714
1477481775.822:    537  86  11  714
1477481775.823:    524  86  11  714
1477481775.823:    506  86  11  714
1477481775.823:    488  86  11  714
1477481775.823:    475  86  11  714
1477481775.823:    469  86  11  714
1477481775.823:    469  86  11  714
1477481775.824:    469  86  11  714
1477481775.824:    462  86  11  714
1477481775.824:    444  86  11  714
1477481775.824:    420  86  11  714
1477481775.824:    402  86  11  714
1477481775.824:    402  86  11  714
1477481775.825:    417  86  11  714
1477481775.825:    430  86  11  714
1477481775.825:    428  86  11  714
1477481775.825:    411  86  11  714
1477481775.825:    394  86  11  714
1477481775.826:    386  86  11  714
1477481775.826:    388  86  11  714
1477481775.826:    396  86  11  714
1477481775.826:    407  86  11  714
1477481775.826:    419  86  11  714
1477481775.826:    421  86  11  714
1477481775.827:    400  86  11  714
1477481775.827:    366  86  11  714
1477481775.827:    347  86  11  714
1477481775.827:    360  86  11  714
1477481775.827:    378  86  11  714
1477481775.827:    356  86  11  714
1477481775.828:    285  86  11  714
1477481775.828:    215  86  11  714
1477481775.828:    195  86  11  714
1477481775.829:    217  86  11  714
1477481775.829:    213  86  11  714
1477481775.829:    149  86  11  714
1477481775.829:     69  86  11  714
1477481775.831:     47  86  11  714
1477481775.831:     86  86  11  714
1477481775.832:    104  86  11  714
1477481775.835:     32  86  11  714
1477481775.854:    -99  86  11  714
1477481775.854:   -221  86  11  714
1477481775.854:   -357  86  11  714
1477481775.854:   -639  86  11  714
1477481775.855:  -1165  86  11  714
1477481775.855:  -1862  86  11  714
1477481775.855:  -2553  86  11  714
1477481775.855:  -3151  86  11  714
1477481775.856:  -3731  86  11  714
1477481775.857:  -4356  86  11  714
1477481775.858:  -4884  86  11  714
1477481775.858:  -5031  86  11  714
1477481775.860:  -4639  86  11  714
1477481775.862:  -3821  86  11  714
1477481775.863:  -2775  86  11  714
1477481775.865:  -1515  86  11  714
1477481775.869:    130  86  11  714
1477481775.870:   2215  86  11  714
1477481775.878:   4445  86  11  714
1477481775.879:   6328  86  11  714
1477481775.882:   7554  86  11  714
1477481775.883:   8179  86  11  714
1477481775.890:   8430  86  11  714
1477481775.891:   8399  86  11  714
1477481775.896:   7971  86  11  714
1477481775.897:   7039  86  11  714
1477481775.898:   5710  86  11  714
1477481775.899:   4290  86  11  714
1477481775.899:   3068  86  11  714
1477481775.923:   2160  86  11  714
1477481775.924:   1538  86  11  714
1477481775.926:   1128  86  11  714
1477481775.927:    881  86  11  714
1477481775.928:    764  86  11  714
1477481775.940:    727  86  11  714
1477481775.940:    713  86  11  714
1477481775.940:    683  86  11  714
1477481775.941:    618  86  11  714
1477481775.941:    509  86  11  714
1477481775.941:    353  86  11  714
1477481775.942:    157  86  11  714
1477481775.942:    -53  86  11  714
1477481775.942:   -231  86  11  714
1477481775.942:   -341  86  11  714
1477481775.943:   -370  86  11  714
1477481775.943:   -339  86  11  714
1477481775.943:   -284  86  11  714
1477481775.943:   -241  86  11  714
1477481775.944:   -236  86  11  714
1477481775.944:   -276  86  11  714
1477481775.944:   -350  86  11  714
1477481775.946:   -434  86  11  714
1477481775.946:   -498  86  11  714
1477481775.946:   -518  86  11  714
1477481775.946:   -495  86  11  714
1477481775.947:   -443  86  11  714
1477481775.948:   -392  86  11  714
1477481775.949:   -365  86  11  714
1477481775.952:   -371  86  11  714
1477481775.955:   -399  86  11  714
1477481775.956:   -436  86  11  714
1477481775.957:   -474  86  11  714
1477481775.958:   -510  86  11  714
1477481775.959:   -546  86  11  714
1477481775.962:   -576  86  11  714
1477481775.965:   -591  86  11  714
1477481775.966:   -583  86  11  714
1477481775.968:   -559  86  11  714
1477481775.969:   -536  86  11  714
1477481775.974:   -526  86  11  714
1477481775.974:   -531  86  11  714
1477481775.976:   -544  86  11  714
1477481775.977:   -556  86  11  714
1477481775.983:   -561  86  11  714
1477481775.983:   -556  86  11  714
1477481775.985:   -548  86  11  714
1477481775.987:   -547  86  11  714
1477481775.988:   -562  86  11  714
1477481775.991:   -585  86  11  714
1477481775.991:   -600  86  11  714
1477481775.993:   -598  86  11  714
1477481775.995:   -593  86  11  714
1477481775.999:   -605  86  11  714
1477481776.001:   -642  86  11  714
1477481776.013:   -686  86  11  714
1477481776.014:   -715  86  11  714
1477481776.014:   -728  86  11  714
1477481776.014:   -741  86  11  714
1477481776.014:   -764  86  11  714
1477481776.014:   -785  86  11  714
1477481776.015:   -794  86  11  714
1477481776.015:   -794  86  11  714
1477481776.018:   -801  86  11  714
1477481776.020:   -820  86  11  714
1477481776.021:   -841  86  11  714
1477481776.024:   -852  86  11  714
1477481776.024:   -861  86  11  714
1477481776.029:   -889  86  11  714
1477481776.060:   -942  86  11  714
1477481776.061:  -1003  86  11  714
1477481776.063:  -1048  86  11  714
1477481776.063:  -1068  86  11  714
1477481776.064:  -1079  86  11  714
1477481776.064:  -1102  86  11  714
1477481776.064:  -1145  86  11  714
1477481776.065:  -1198  86  11  714
1477481776.065:  -1243  86  11  714
1477481776.066:  -1273  86  11  714
1477481776.067:  -1294  86  11  714
1477481776.068:  -1316  86  11  714
1477481776.069:  -1346  89  11  714
1477481776.069:  -1382  89  11  714
1477481776.070:  -1419  89  11  714
1477481776.070:  -1454  89  11  714
1477481776.070:  -1486  89  11  714
1477481776.070:  -1512  89  11  714
1477481776.071:  -1532  89  11  714
1477481776.071:  -1551  89  11  714
1477481776.071:  -1576  89  11  714
1477481776.074:  -1606  89  11  714
1477481776.075:  -1632  89  11  714
1477481776.075:  -1646  89  11  714
1477481776.080:  -1652  89  11  714
1477481776.081:  -1661  89  11  714
1477481776.097:  -1668  89  11  714
1477481776.098:  -1657  89  11  714
1477481776.099:  -1622  89  11  714
1477481776.099:  -1578  89  11  714
1477481776.100:  -1549  89  11  714
1477481776.100:  -1540  89  11  714
1477481776.101:  -1527  89  11  714
1477481776.102:  -1491  89  11  714
1477481776.103:  -1441  89  11  714
1477481776.103:  -1406  89  11  714
1477481776.103:  -1396  89  11  714
1477481776.104:  -1393  89  11  714
1477481776.105:  -1369  89  11  714
1477481776.106:  -1318  89  11  714
1477481776.110:  -1259  89  11  714
1477481776.110:  -1208  89  11  714
1477481776.140:  -1156  89  11  714
1477481776.140:  -1087  89  11  714
1477481776.140:   -999  89  11  714
1477481776.141:   -905  89  11  714
1477481776.141:   -821  89  11  714
1477481776.141:   -745  89  11  714
1477481776.141:   -669  89  11  714
1477481776.142:   -589  89  11  714
1477481776.142:   -518  89  11  714
1477481776.142:   -462  89  11  714
1477481776.143:   -415  89  11  714
1477481776.143:   -361  89  11  714
1477481776.143:   -294  89  11  714
1477481776.144:   -217  89  11  714
1477481776.144:   -144  89  11  714
1477481776.144:    -76  89  11  714
1477481776.144:     -9  89  11  714
1477481776.145:     66  89  11  714
1477481776.147:    149  89  11  714
1477481776.151:    233  89  11  714
1477481776.165:    311  89  11  714
1477481776.165:    377  89  11  714
1477481776.165:    434  89  11  714
1477481776.165:    486  89  11  714
1477481776.166:    538  89  11  714
1477481776.166:    589  89  11  714
1477481776.167:    634  89  11  714
1477481776.167:    671  89  11  714
1477481776.169:    702  89  11  714
1477481776.169:    732  89  11  714
1477481776.169:    764  89  11  714
1477481776.171:    795  89  11  714
1477481776.174:    823  89  11  714
1477481776.179:    851  89  11  714
1477481776.181:    881  89  11  714
1477481776.181:    914  89  11  714
1477481776.182:    944  89  11  714
1477481776.183:    967  89  11  714
1477481776.186:    979  89  11  714
1477481776.190:    984  89  11  714
1477481776.191:    988  89  11  714
1477481776.192:   1000  89  11  714
1477481776.194:   1016  89  11  714
1477481776.197:   1024  89  11  714
1477481776.211:   1010  89  11  714
1477481776.213:    980  89  11  714
1477481776.213:    955  89  11  714
1477481776.214:    951  89  11  714
1477481776.215:    960  89  11  714
1477481776.215:    959  89  11  714
1477481776.216:    936  89  11  714
1477481776.217:    907  89  11  714
1477481776.217:    892  89  11  714
1477481776.218:    893  89  11  714
1477481776.218:    897  89  11  714
1477481776.220:    889  89  11  714
1477481776.250:    869  89  11  714
1477481776.251:    847  89  11  714
1477481776.251:    828  89  11  714
1477481776.251:    810  89  11  714
1477481776.251:    796  89  11  714
1477481776.251:    786  89  11  714
1477481776.252:    776  89  11  714
1477481776.252:    760  89  11  714
1477481776.252:    736  89  11  714
1477481776.252:    714  89  11  714
1477481776.252:    705  89  11  714
1477481776.253:    705  89  11  714
1477481776.254:    699  89  11  714
1477481776.255:    675  89  11  714
1477481776.255:    642  89  11  714
1477481776.259:    620  89  11  714
1477481776.259:    614  89  11  714
1477481776.261:    615  89  11  714
1477481776.261:    603  89  11  714
1477481776.270:    576  89  11  714
1477481776.278:    549  89  11  714
1477481776.278:    536  89  11  714
1477481776.278:    535  89  11  714
1477481776.278:    528  89  11  714
1477481776.278:    506  89  11  714
1477481776.278:    478  89  11  714
1477481776.279:    460  89  11  714
1477481776.279:    455  89  11  714
1477481776.282:    450  89  11  714
1477481776.284:    436  89  11  714
1477481776.286:    417  89  11  714
1477481776.287:    406  89  11  714
1477481776.289:    406  89  11  714
1477481776.292:    410  89  11  714
1477481776.300:    405  89  11  714
1477481776.301:    392  89  11  714
1477481776.302:    379  89  11  714
1477481776.302:    372  89  11  714
1477481776.303:    369  89  11  714
1477481776.304:    364  89  11  714
1477481776.306:    353  89  11  714
1477481776.310:    340  89  11  714
1477481776.320:    328  89  11  714
1477481776.321:    324  89  11  714
1477481776.322:    328  89  11  714
1477481776.324:    337  89  11  714
1477481776.326:    341  89  11  714
1477481776.328:    338  89  11  714
1477481776.329:    331  89  11  714
1477481776.331:    328  89  11  714
1477481776.332:    331  89  11  714
1477481776.332:    331  89  11  714
1477481776.333:    325  89  11  714
1477481776.333:    316  89  11  714
1477481776.334:    309  89  11  714
1477481776.335:    306  89  11  714
1477481776.336:    305  89  11  714
1477481776.337:    305  89  11  714
1477481776.338:    310  89  11  714
1477481776.339:    320  89  11  714
1477481776.352:    331  89  11  714
1477481776.353:    338  89  11  714
1477481776.354:    342  89  11  714
1477481776.355:    347  89  11  714
1477481776.356:    353  89  11  714
1477481776.357:    359  89  11  714
1477481776.358:    363  89  11  714
1477481776.359:    368  89  11  714
1477481776.372:    375  89  11  714
1477481776.451:    379  89  11  714
1477481776.463:    380  89  11  714
1477481776.463:    382  89  11  714
1477481776.463:    393  89  11  714
1477481776.463:    412  89  11  714
1477481776.463:    429  89  11  714
1477481776.464:    433  89  11  714
1477481776.464:    426  89  11  714
1477481776.464:    419  89  11  714
1477481776.464:    414  89  11  714
1477481776.464:    408  89  11  714
1477481776.465:    396  89  11  714
1477481776.465:    380  89  11  714
1477481776.465:    365  89  11  714
1477481776.465:    350  89  11  714
1477481776.465:    330  89  11  714
1477481776.465:    304  89  11  714
1477481776.465:    280  89  11  714
1477481776.466:    264  89  11  714
1477481776.466:    251  89  11  714
1477481776.466:    228  89  11  714
1477481776.466:    190  89  11  714
1477481776.466:    146  89  11  714
1477481776.466:    106  89  11  714
1477481776.466:     75  89  11  714
1477481776.467:     48  89  11  714
1477481776.467:     14  89  11  714
1477481776.467:    -37  89  11  714
1477481776.467:   -108  89  11  714
1477481776.467:   -186  89  11  714
1477481776.467:   -251  89  11  714
1477481776.467:   -289  89  11  714
1477481776.469:   -308  89  11  714
1477481776.469:   -327  89  11  714
1477481776.469:   -354  89  11  714
1477481776.469:   -369  89  11  714
1477481776.469:   -343  89  11  714
1477481776.469:   -267  89  11  714
1477481776.469:   -167  89  11  714
1477481776.470:    -80  89  11  714
1477481776.470:    -19  89  11  714
1477481776.482:     30  89  11  714
1477481776.482:     86  89  11  714
1477481776.482:    148  89  11  714
1477481776.482:    193  89  11  714
1477481776.483:    210  89  11  714
1477481776.483:    207  89  11  714
1477481776.484:    207  89  11  714
1477481776.484:    223  89  11  714
1477481776.484:    254  89  11  714
1477481776.485:    288  89  11  714
1477481776.485:    324  89  11  714
1477481776.485:    366  89  11  714
1477481776.485:    420  89  11  714
1477481776.485:    479  89  11  714
1477481776.485:    528  89  11  714
1477481776.486:    556  89  11  714
1477481776.486:    562  89  11  714
1477481776.486:    558  89  11  714
1477481776.486:    557  89  11  714
1477481776.486:    562  89  11  714
1477481776.486:    563  89  11  714
1477481776.488:    552  89  11  714
1477481776.495:    534  89  11  714
1477481776.495:    525  89  11  714
1477481776.497:    534  89  11  714
1477481776.501:    555  89  11  714
1477481776.517:    573  89  11  714
1477481776.517:    577  89  11  714
1477481776.517:    567  89  11  714
1477481776.518:    553  89  11  714
1477481776.518:    544  89  11  714
1477481776.518:    544  89  11  714
1477481776.519:    547  89  11  714
1477481776.519:    545  89  11  714
1477481776.519:    535  89  11  714
1477481776.520:    522  89  11  714
1477481776.520:    515  89  11  714
1477481776.522:    519  89  11  714
1477481776.522:    532  89  11  714
1477481776.522:    542  89  11  714
1477481776.532:    543  89  11  714
1477481776.532:    534  89  11  714
1477481776.542:    520  89  11  714
1477481776.542:    509  89  11  714
1477481776.544:    502  89  11  714
1477481776.547:    495  89  11  714
1477481776.548:    481  89  11  714
1477481776.550:    465  89  11  714
1477481776.551:    454  89  11  714
1477481776.551:    448  89  11  714
1477481776.552:    435  89  11  714
1477481776.553:    406  89  11  714
1477481776.554:    366  89  11  714
1477481776.555:    336  89  11  714
1477481776.571:    320  89  11  714
1477481776.572:    297  89  11  714
1477481776.573:    250  89  11  714
1477481776.574:    203  89  11  714
1477481776.574:    199  89  11  714
1477481776.575:    237  89  11  714
1477481776.576:    262  89  11  714
1477481776.576:    214  89  11  714
1477481776.578:    107  89  11  714
1477481776.578:    -14  89  11  714
1477481776.579:   -169  89  11  714
1477481776.584:   -468  89  11  714
1477481776.611:   -992  89  11  714
1477481776.612:  -1684  89  11  714
1477481776.613:  -2391  89  11  714
1477481776.613:  -3033  89  11  714
1477481776.614:  -3656  89  11  714
1477481776.614:  -4283  89  11  714
1477481776.615:  -4762  89  11  714
1477481776.615:  -4841  89  11  714
1477481776.616:  -4412  89  11  714
1477481776.617:  -3607  89  11  714
1477481776.617:  -2585  89  11  714
1477481776.618:  -1306  89  11  714
1477481776.618:    414  89  11  714
1477481776.619:   2569  89  11  714
1477481776.619:   4788  89  11  714
1477481776.619:   6566  89  11  714
1477481776.619:   7650  89  11  714
1477481776.621:   8169  89  11  714
1477481776.621:   8372  89  11  714
1477481776.623:   8309  89  11  714
1477481776.624:   7828  89  11  714
1477481776.624:   6827  89  11  714
1477481776.628:   5457  89  11  714
1477481776.631:   4052  89  11  714
1477481776.632:   2889  89  11  714
1477481776.633:   2061  89  11  714
1477481776.633:   1515  89  11  714
1477481776.634:   1168  89  11  714
1477481776.635:    966  89  11  714
1477481776.635:    868  89  11  714
1477481776.640:    829  89  11  714
1477481776.640:    802  89  11  714
1477481776.653:    755  89  11  714
1477481776.655:    667  89  11  714
1477481776.657:    530  89  11  714
1477481776.658:    352  89  11  714
1477481776.660:    155  89  11  714
1477481776.660:    -33  89  11  714
1477481776.660:   -187  89  11  714
1477481776.661:   -282  89  11  714
1477481776.674:   -305  89  11  714
1477481776.675:   -258  89  11  714
1477481776.675:   -173  89  11  714
1477481776.675:   -110  89  11  714
1477481776.677:   -114  89  11  714
1477481776.677:   -191  89  11  714
1477481776.688:   -300  89  11  714
1477481776.688:   -395  89  11  714
1477481776.689:   -449  89  11  714
1477481776.689:   -465  89  11  714
1477481776.689:   -455  89  11  714
1477481776.695:   -425  89  11  714
1477481776.697:   -384  89  11  714
1477481776.697:   -347  89  11  714
1477481776.698:   -332  89  11  714
1477481776.712:   -347  89  11  714
1477481776.727:   -381  89  11  714
1477481776.727:   -415  89  11  714
1477481776.727:   -438  89  11  714
1477481776.727:   -449  89  11  714
1477481776.728:   -454  89  11  714
1477481776.728:   -454  89  11  714
1477481776.729:   -450  89  11  714
1477481776.730:   -443  89  11  714
1477481776.731:   -435  89  11  714
1477481776.731:   -436  89  11  714
1477481776.732:   -450  89  11  714
1477481776.733:   -477  89  11  714
1477481776.733:   -504  89  11  714
1477481776.734:   -519  89  11  714
1477481776.746:   -519  89  11  714
1477481776.747:   -517  89  11  714
1477481776.747:   -525  89  11  714
1477481776.747:   -544  89  11  714
1477481776.748:   -562  89  11  714
1477481776.748:   -568  89  11  714
1477481776.748:   -566  89  11  714
1477481776.749:   -567  89  11  714
1477481776.749:   -577  89  11  714
1477481776.749:   -589  89  11  714
1477481776.750:   -598  89  11  714
1477481776.750:   -606  89  11  714
1477481776.750:   -618  89  11  714
1477481776.750:   -635  89  11  714
1477481776.751:   -652  89  11  714
1477481776.751:   -666  89  11  714
1477481776.751:   -682  89  11  714
1477481776.751:   -704  89  11  714
1477481776.752:   -730  89  11  714
1477481776.752:   -752  89  11  714
1477481776.752:   -768  89  11  714
1477481776.757:   -786  89  11  714
1477481776.764:   -811  89  11  714
1477481776.764:   -842  89  11  714
1477481776.764:   -874  89  11  714
1477481776.764:   -903  89  11  714
1477481776.765:   -933  89  11  714
1477481776.765:   -967  89  11  714
1477481776.767:  -1007  89  11  714
1477481776.768:  -1051  89  11  714
1477481776.769:  -1093  89  11  714
1477481776.770:  -1129  89  11  714
1477481776.772:  -1159  89  11  714
1477481776.779:  -1187  89  11  714
1477481776.786:  -1222  89  11  714
1477481776.790:  -1264  89  11  714
1477481776.797:  -1309  89  11  714
1477481776.800:  -1346  89  11  714
1477481776.811:  -1375  89  11  714
1477481776.812:  -1403  87  11  718
1477481776.815:  -1435  87  11  718
1477481776.816:  -1465  87  11  718
1477481776.817:  -1488  87  11  718
1477481776.818:  -1501  87  11  718
1477481776.819:  -1511  87  11  718
1477481776.819:  -1522  87  11  718
1477481776.820:  -1531  87  11  718
1477481776.823:  -1532  87  11  718
1477481776.832:  -1525  87  11  718
1477481776.833:  -1521  87  11  718
1477481776.834:  -1525  87  11  718
1477481776.834:  -1533  87  11  718
1477481776.835:  -1533  87  11  718
1477481776.835:  -1522  87  11  718
1477481776.846:  -1509  87  11  718
1477481776.850:  -1499  87  11  718
1477481776.851:  -1487  87  11  718
1477481776.851:  -1463  87  11  718
1477481776.852:  -1421  87  11  718
1477481776.853:  -1374  87  11  718
1477481776.853:  -1336  87  11  718
1477481776.854:  -1307  87  11  718
1477481776.857:  -1272  87  11  718
1477481776.858:  -1217  87  11  718
1477481776.866:  -1144  87  11  718
1477481776.870:  -1071  87  11  718
1477481776.871:  -1011  87  11  718
1477481776.872:   -957  87  11  718
1477481776.872:   -892  87  11  718
1477481776.873:   -813  87  11  718
1477481776.883:   -729  87  11  718
1477481776.883:   -655  87  11  718
1477481776.883:   -591  87  11  718
1477481776.883:   -526  87  11  718
1477481776.883:   -456  87  11  718
1477481776.883:   -384  87  11  718
1477481776.883:   -320  87  11  718
1477481776.899:   -260  87  11  718
1477481776.901:   -195  87  11  718
1477481776.901:   -121  87  11  718
1477481776.912:    -48  87  11  718
1477481776.912:     15  87  11  718
1477481776.919:     70  87  11  718
1477481776.919:    133  87  11  718
1477481776.919:    210  87  11  718
1477481776.919:    290  87  11  718
1477481776.919:    355  87  11  718
1477481776.920:    404  87  11  718
1477481776.920:    451  87  11  718
1477481776.920:    511  87  11  718
1477481776.920:    577  87  11  718
1477481776.920:    632  87  11  718
1477481776.920:    668  87  11  718
1477481776.922:    695  87  11  718
1477481776.923:    731  87  11  718
1477481776.927:    781  87  11  718
1477481776.927:    833  87  11  718
1477481776.927:    874  87  11  718
1477481776.927:    902  87  11  718
1477481776.927:    928  87  11  718
1477481776.928:    961  87  11  718
1477481776.930:    998  87  11  718
1477481776.939:   1027  87  11  718
1477481776.940:   1042  87  11  718
1477481776.940:   1050  87  11  718
1477481776.940:   1063  87  11  718
1477481776.940:   1084  87  11  718
1477481776.940:   1100  87  11  718
1477481776.940:   1101  87  11  718
1477481776.940:   1090  87  11  718
1477481776.941:   1080  87  11  718
1477481776.941:   1082  87  11  718
1477481776.941:   1093  87  11  718
1477481776.942:   1096  87  11  718
1477481776.943:   1083  87  11  718
1477481776.944:   1061  87  11  718
1477481776.944:   1044  87  11  718
1477481776.949:   1031  87  11  718
1477481776.950:   1016  87  11  718
1477481776.959:    996  87  11  718
1477481776.960:    979  87  11  718
1477481776.961:    970  87  11  718
1477481776.961:    964  87  11  718
1477481776.962:    953  87  11  718
1477481776.963:    934  87  11  718
1477481776.968:    915  87  11  718
1477481776.972:    904  87  11  718
1477481776.972:    896  87  11  718
1477481776.976:    876  87  11  718
1477481776.977:    844  87  11  718
1477481776.978:    812  87  11  718
1477481776.979:    795  87  11  718
1477481776.980:    791  87  11  718
1477481776.988:    785  87  11  718
1477481776.996:    766  87  11  718
1477481776.997:    743  87  11  718
1477481776.997:    732  87  11  718
1477481776.997:    734  87  11  718
1477481776.997:    735  87  11  718
1477481776.998:    720  87  11  718
1477481777.001:    689  87  11  718
1477481777.003:    659  87  11  718
1477481777.003:    639  87  11  718
1477481777.004:    625  87  11  718
1477481777.004:    607  87  11  718
1477481777.004:    583  87  11  718
1477481777.004:    558  87  11  718
1477481777.006:    539  87  11  718
1477481777.006:    527  87  11  718
1477481777.006:    517  87  11  718
1477481777.008:    511  87  11  718
1477481777.009:    506  87  11  718
1477481777.012:    498  87  11  718
1477481777.012:    479  87  11  718
1477481777.032:    452  87  11  718
1477481777.033:    426  87  11  718
1477481777.033:    407  87  11  718
1477481777.033:    398  87  11  718
1477481777.033:    390  87  11  718
1477481777.033:    381  87  11  718
1477481777.033:    372  87  11  718
1477481777.034:    367  87  11  718
1477481777.034:    369  87  11  718
1477481777.034:    377  87  11  718
1477481777.035:    386  87  11  718
1477481777.039:    391  87  11  718
1477481777.041:    386  87  11  718
1477481777.041:    377  87  11  718
1477481777.043:    369  87  11  718
1477481777.045:    367  87  11  718
1477481777.056:    366  87  11  718
1477481777.057:    357  87  11  718
1477481777.057:    345  87  11  718
1477481777.058:    339  87  11  718
1477481777.059:    343  87  11  718
1477481777.059:    351  87  11  718
1477481777.060:    355  87  11  718
1477481777.061:    354  87  11  718
1477481777.062:    355  87  11  718
1477481777.064:    359  87  11  718
1477481777.072:    363  87  11  718
1477481777.073:    364  87  11  718
1477481777.073:    363  87  11  718
1477481777.073:    365  87  11  718
1477481777.073:    363  87  11  718
1477481777.073:    355  87  11  718
1477481777.075:    344  87  11  718
1477481777.077:    345  87  11  718
1477481777.078:    363  87  11  718
1477481777.085:    386  87  11  718
1477481777.086:    397  87  11  718
1477481777.087:    392  87  11  718
1477481777.092:    385  87  11  718
1477481777.093:    388  87  11  718
1477481777.094:    399  87  11  718
1477481777.095:    405  87  11  718
1477481777.098:    399  87  11  718
1477481777.099:    386  87  11  718
1477481777.099:    379  87  11  718
1477481777.099:    378  87  11  718
1477481777.100:    377  87  11  718
1477481777.100:    371  87  11  718
1477481777.101:    362  87  11  718
1477481777.102:    356  87  11  718
1477481777.106:    355  87  11  718
1477481777.106:    354  87  11  718
1477481777.108:    349  87  11  718
1477481777.110:    338  87  11  718
1477481777.112:    325  87  11  718
1477481777.200:    313  87  11  718
1477481777.214:    299  87  11  718
1477481777.214:    286  87  11  718
1477481777.214:    273  87  11  718
1477481777.214:    259  87  11  718
1477481777.215:    245  87  11  718
1477481777.215:    228  87  11  718
1477481777.215:    211  87  11  718
1477481777.215:    192  87  11  718
1477481777.215:    168  87  11  718
1477481777.215:    133  87  11  718
1477481777.216:     94  87  11  718
1477481777.216:     64  87  11  718
1477481777.216:     42  87  11  718
1477481777.216:      8  87  11  718
1477481777.216:    -55  87  11  718
1477481777.216:   -143  87  11  718
1477481777.217:   -221  87  11  718
1477481777.217:   -261  87  11  718
1477481777.217:   -269  87  11  718
1477481777.217:   -282  87  11  718
1477481777.217:   -321  87  11  718
1477481777.217:   -367  87  11  718
1477481777.218:   -379  87  11  718
1477481777.218:   -334  87  11  718
1477481777.218:   -252  87  11  718
1477481777.218:   -171  87  11  718
1477481777.218:   -109  87  11  718
1477481777.218:    -56  87  11  718
1477481777.219:      5  87  11  718
1477481777.219:     72  87  11  718
1477481777.219:    125  87  11  718
1477481777.219:    156  87  11  718
1477481777.219:    172  87  11  718
1477481777.220:    187  87  11  718
1477481777.220:    206  87  11  718
1477481777.220:    227  87  11  718
1477481777.220:    244  87  11  718
1477481777.220:    265  87  11  718
1477481777.221:    300  87  11  718
1477481777.221:    355  87  11  718
1477481777.221:    425  87  11  718
1477481777.221:    491  87  11  718
1477481777.221:    535  87  11  718
1477481777.221:    551  87  11  718
1477481777.234:    552  87  11  718
1477481777.234:    559  87  11  718
1477481777.234:    583  87  11  718
1477481777.234:    608  87  11  718
1477481777.234:    607  87  11  718
1477481777.235:    573  87  11  718
1477481777.235:    534  87  11  718
1477481777.235:    522  87  11  718
1477481777.235:    542  87  11  718
1477481777.235:    569  87  11  718
1477481777.235:    575  87  11  718
1477481777.237:    560  87  11  718
1477481777.237:    545  87  11  718
1477481777.237:    543  87  11  718
1477481777.238:    548  87  11  718
1477481777.238:    546  87  11  718
1477481777.238:    538  87  11  718
1477481777.238:    530  87  11  718
1477481777.239:    521  87  11  718
1477481777.249:    505  87  11  718
1477481777.254:    482  87  11  718
1477481777.254:    465  87  11  718
1477481777.254:    464  87  11  718
1477481777.255:    469  87  11  718
1477481777.257:    461  87  11  718
1477481777.258:    439  87  11  718
1477481777.261:    420  87  11  718
1477481777.261:    422  87  11  718
1477481777.267:    438  87  11  718
1477481777.269:    444  87  11  718
1477481777.276:    430  87  11  718
1477481777.276:    411  87  11  718
1477481777.277:    403  87  11  718
1477481777.277:    400  87  11  718
1477481777.277:    385  87  11  718
1477481777.278:    352  87  11  718
1477481777.280:    318  87  11  718
1477481777.280:    297  87  11  718
1477481777.282:    277  87  11  718
1477481777.283:    241  87  11  718
1477481777.285:    200  87  11  718
1477481777.285:    195  87  11  718
1477481777.287:    231  87  11  718
1477481777.288:    262  87  11  718
1477481777.291:    228  87  11  718
1477481777.291:    132  87  11  718
1477481777.293:     19  87  11  718
1477481777.297:   -113  87  11  718
1477481777.304:   -358  87  11  718
1477481777.305:   -802  87  11  718
1477481777.305:  -1414  87  11  718
1477481777.305:  -2061  87  11  718
1477481777.305:  -2663  87  11  718
1477481777.306:  -3256  87  11  718
1477481777.311:  -3880  87  11  718
1477481777.311:  -4404  87  11  718
1477481777.313:  -4571  87  11  718
1477481777.347:  -4237  87  11  718
1477481777.350:  -3514  87  11  718
1477481777.355:  -2604  87  11  718
1477481777.374:  -1508  87  11  718
1477481777.375:    -11  87  11  718
1477481777.376:   1999  87  11  718
1477481777.377:   4245  87  11  718
1477481777.380:   6180  87  11  718
1477481777.380:   7421  87  11  718
1477481777.381:   8006  87  11  718
1477481777.381:   8220  87  11  718
1477481777.381:   8220  87  11  718
1477481777.381:   7886  87  11  718
1477481777.381:   7040  87  11  718
1477481777.382:   5733  87  11  718
1477481777.382:   4269  87  11  718
1477481777.382:   2993  87  11  718
1477481777.382:   2067  87  11  718
1477481777.383:   1463  87  11  718
1477481777.383:   1087  87  11  718
1477481777.383:    872  87  11  718
1477481777.383:    775  87  11  718
1477481777.383:    753  87  11  718
1477481777.384:    748  87  11  718
1477481777.384:    719  87  11  718
1477481777.385:    647  87  11  718
1477481777.385:    529  87  11  718
1477481777.385:    362  87  11  718
1477481777.385:    158  87  11  718
1477481777.386:    -53  87  11  718
1477481777.386:   -231  87  11  718
1477481777.386:   -340  87  11  718
1477481777.386:   -367  87  11  718
1477481777.386:   -323  87  11  718
1477481777.387:   -239  87  11  718
1477481777.387:   -159  87  11  718
1477481777.387:   -126  87  11  718
1477481777.394:   -165  87  11  718
1477481777.395:   -261  87  11  718
1477481777.410:   -376  87  11  718
1477481777.411:   -468  87  11  718
1477481777.412:   -511  87  11  718
1477481777.413:   -508  87  11  718
1477481777.415:   -473  87  11  718
1477481777.416:   -429  87  11  718
1477481777.418:   -393  87  11  718
1477481777.419:   -378  87  11  718
1477481777.428:   -383  87  11  718
1477481777.429:   -402  87  11  718
1477481777.429:   -422  87  11  718
1477481777.430:   -438  87  11  718
1477481777.430:   -448  87  11  718
1477481777.431:   -451  87  11  718
1477481777.432:   -445  87  11  718
1477481777.432:   -433  87  11  718
1477481777.433:   -425  87  11  718
1477481777.433:   -429  87  11  718
1477481777.434:   -442  87  11  718
1477481777.434:   -458  87  11  718
1477481777.435:   -473  87  11  718
1477481777.435:   -490  87  11  718
1477481777.436:   -512  87  11  718
1477481777.436:   -530  87  11  718
1477481777.438:   -531  87  11  718
1477481777.440:   -519  87  11  718
1477481777.444:   -512  87  11  718
1477481777.444:   -525  87  11  718
1477481777.446:   -551  87  11  718
1477481777.447:   -574  87  11  718
1477481777.453:   -583  87  11  718
1477481777.454:   -587  87  11  718
1477481777.467:   -601  87  11  718
1477481777.468:   -626  87  11  718
1477481777.468:   -649  87  11  718
1477481777.468:   -662  87  11  718
1477481777.469:   -667  87  11  718
1477481777.469:   -678  87  11  718
1477481777.469:   -698  87  11  718
1477481777.469:   -719  87  11  718
1477481777.471:   -736  87  11  718
1477481777.471:   -743  87  11  718
1477481777.473:   -746  87  11  718
1477481777.476:   -752  87  11  718
1477481777.481:   -768  87  11  718
1477481777.481:   -793  87  11  718
1477481777.489:   -820  87  11  718
1477481777.489:   -839  87  11  718
1477481777.489:   -851  87  11  718
1477481777.489:   -866  87  11  718
1477481777.490:   -895  87  11  718
1477481777.494:   -931  87  11  718
1477481777.495:   -962  87  11  718
1477481777.496:   -985  87  11  718
1477481777.499:  -1014  87  11  718
1477481777.499:  -1058  87  11  718
1477481777.500:  -1108  87  11  718
1477481777.502:  -1144  83  11  715
1477481777.507:  -1162  83  11  715
1477481777.508:  -1181  83  11  715
1477481777.509:  -1218  83  11  715
1477481777.510:  -1265  83  11  715
1477481777.525:  -1300  83  11  715
1477481777.526:  -1313  83  11  715
1477481777.526:  -1319  83  11  715
1477481777.527:  -1338  83  11  715
1477481777.527:  -1367  83  11  715
1477481777.528:  -1389  83  11  715
1477481777.528:  -1394  83  11  715
1477481777.528:  -1393  83  11  715
1477481777.528:  -1402  83  11  715
1477481777.530:  -1421  83  11  715
1477481777.535:  -1436  83  11  715
1477481777.536:  -1437  83  11  715
1477481777.548:  -1428  83  11  715
1477481777.548:  -1422  83  11  715
1477481777.548:  -1425  83  11  715
1477481777.549:  -1431  83  11  715
1477481777.549:  -1430  83  11  715
1477481777.550:  -1417  83  11  715
1477481777.550:  -1392  83  11  715
1477481777.550:  -1365  83  11  715
1477481777.558:  -1341  83  11  715
1477481777.559:  -1319  83  11  715
1477481777.568:  -1293  83  11  715
1477481777.568:  -1256  83  11  715
1477481777.568:  -1211  83  11  715
1477481777.568:  -1159  83  11  715
1477481777.568:  -1105  83  11  715
1477481777.568:  -1049  83  11  715
1477481777.569:   -993  83  11  715
1477481777.569:   -938  83  11  715
1477481777.573:   -877  83  11  715
1477481777.574:   -805  83  11  715
1477481777.575:   -724  83  11  715
1477481777.576:   -645  83  11  715
1477481777.581:   -575  83  11  715
1477481777.582:   -505  83  11  715
1477481777.583:   -427  83  11  715
1477481777.585:   -339  83  11  715
1477481777.595:   -255  83  11  715
1477481777.596:   -187  83  11  715
1477481777.596:   -126  83  11  715
1477481777.597:    -57  83  11  715
1477481777.597:     27  83  11  715
1477481777.597:    117  83  11  715
1477481777.599:    198  83  11  715
1477481777.603:    269  83  11  715
1477481777.603:    339  83  11  715
1477481777.604:    414  83  11  715
1477481777.622:    491  83  11  715
1477481777.622:    562  83  11  715
1477481777.622:    622  83  11  715
1477481777.622:    672  83  11  715
1477481777.623:    714  83  11  715
1477481777.623:    751  83  11  715
1477481777.623:    787  83  11  715
1477481777.623:    822  83  11  715
1477481777.623:    854  83  11  715
1477481777.624:    882  83  11  715
1477481777.626:    911  83  11  715
1477481777.627:    948  83  11  715
1477481777.630:    989  83  11  715
1477481777.631:   1022  83  11  715
1477481777.635:   1041  83  11  715
1477481777.636:   1054  83  11  715
1477481777.649:   1072  83  11  715
1477481777.650:   1093  83  11  715
1477481777.650:   1104  83  11  715
1477481777.650:   1098  83  11  715
1477481777.650:   1085  83  11  715
1477481777.650:   1079  83  11  715
1477481777.650:   1083  83  11  715
1477481777.651:   1089  83  11  715
1477481777.655:   1090  83  11  715
1477481777.655:   1088  83  11  715
1477481777.656:   1086  83  11  715
1477481777.662:   1083  83  11  715
1477481777.662:   1076  83  11  715
1477481777.665:   1069  83  11  715
1477481777.666:   1065  83  11  715
1477481777.668:   1050  83  11  715
1477481777.675:   1009  83  11  715
1477481777.675:    940  83  11  715
1477481777.687:    867  83  11  715
1477481777.687:    817  83  11  715
1477481777.687:    789  83  11  715
1477481777.687:    762  83  11  715
1477481777.688:    722  83  11  715
1477481777.688:    682  83  11  715
1477481777.688:    667  83  11  715
1477481777.690:    685  83  11  715
1477481777.691:    718  83  11  715
1477481777.692:    750  83  11  715
1477481777.694:    775  83  11  715
1477481777.695:    799  83  11  715
1477481777.698:    823  83  11  715
1477481777.699:    844  83  11  715
1477481777.706:    857  83  11  715
1477481777.706:    862  83  11  715
1477481777.706:    857  83  11  715
1477481777.707:    841  83  11  715
1477481777.732:    820  83  11  715
1477481777.732:    803  83  11  715
1477481777.732:    791  83  11  715
1477481777.732:    774  83  11  715
1477481777.733:    744  83  11  715
1477481777.733:    706  83  11  715
1477481777.734:    679  83  11  715
1477481777.734:    671  83  11  715
1477481777.734:    672  83  11  715
1477481777.734:    665  83  11  715
1477481777.734:    645  83  11  715
1477481777.735:    626  83  11  715
1477481777.735:    621  83  11  715
1477481777.736:    626  83  11  715
1477481777.738:    626  83  11  715
1477481777.739:    611  83  11  715
1477481777.742:    589  83  11  715
1477481777.745:    571  83  11  715
1477481777.745:    560  83  11  715
1477481777.750:    548  83  11  715
1477481777.761:    528  83  11  715
1477481777.761:    504  83  11  715
1477481777.761:    486  83  11  715
1477481777.761:    479  83  11  715
1477481777.762:    476  83  11  715
1477481777.763:    468  83  11  715
1477481777.768:    451  83  11  715
1477481777.769:    435  83  11  715
1477481777.778:    426  83  11  715
1477481777.779:    423  83  11  715
1477481777.779:    417  83  11  715
1477481777.779:    406  83  11  715
1477481777.779:    396  83  11  715
1477481777.779:    397  83  11  715
1477481777.781:    403  83  11  715
1477481777.781:    403  83  11  715
1477481777.784:    392  83  11  715
1477481777.785:    376  83  11  715
1477481777.787:    370  83  11  715
1477481777.791:    375  83  11  715
1477481777.798:    381  83  11  715
1477481777.798:    380  83  11  715
1477481777.798:    376  83  11  715
1477481777.798:    377  83  11  715
1477481777.799:    383  83  11  715
1477481777.799:    389  83  11  715
1477481777.800:    395  83  11  715
1477481777.801:    402  83  11  715
1477481777.804:    414  83  11  715
1477481777.889:    424  83  11  715
1477481777.899:    422  83  11  715
1477481777.899:    409  83  11  715
1477481777.899:    397  83  11  715
1477481777.899:    394  83  11  715
1477481777.900:    398  83  11  715
1477481777.900:    398  83  11  715
1477481777.900:    389  83  11  715
1477481777.900:    382  83  11  715
1477481777.900:    383  83  11  715
1477481777.900:    390  83  11  715
1477481777.901:    395  83  11  715
1477481777.901:    392  83  11  715
1477481777.901:    386  83  11  715
1477481777.901:    383  83  11  715
1477481777.901:    379  83  11  715
1477481777.902:    368  83  11  715
1477481777.902:    348  83  11  715
1477481777.902:    328  83  11  715
1477481777.903:    313  83  11  715
1477481777.903:    301  83  11  715
1477481777.903:    285  83  11  715
1477481777.903:    261  83  11  715
1477481777.903:    238  83  11  715
1477481777.903:    217  83  11  715
1477481777.904:    194  83  11  715
1477481777.904:    162  83  11  715
1477481777.904:    128  83  11  715
1477481777.904:    106  83  11  715
1477481777.904:    100  83  11  715
1477481777.905:     93  83  11  715
1477481777.905:     66  83  11  715
1477481777.906:     14  83  11  715
1477481777.906:    -48  83  11  715
1477481777.906:   -108  83  11  715
1477481777.906:   -163  83  11  715
1477481777.907:   -218  83  11  715
1477481777.907:   -270  83  11  715
1477481777.907:   -316  83  11  715
1477481777.907:   -352  83  11  715
1477481777.908:   -372  83  11  715
1477481777.908:   -361  83  11  715
1477481777.908:   -305  83  11  715
1477481777.910:   -207  83  11  715
1477481777.910:    -92  83  11  715
1477481777.911:      7  83  11  715
1477481777.912:     83  83  11  715
1477481777.912:    149  83  11  715
1477481777.914:    217  83  11  715
1477481777.915:    277  83  11  715
1477481777.917:    307  83  11  715
1477481777.927:    304  83  11  715
1477481777.927:    288  83  11  715
1477481777.928:    281  83  11  715
1477481777.928:    286  83  11  715
1477481777.930:    296  83  11  715
1477481777.930:    311  83  11  715
1477481777.931:    344  83  11  715
1477481777.931:    402  83  11  715
1477481777.932:    470  83  11  715
1477481777.933:    520  83  11  715
1477481777.934:    544  83  11  715
1477481777.934:    556  83  11  715
1477481777.948:    573  83  11  715
1477481777.949:    599  83  11  715
1477481777.950:    619  83  11  715
1477481777.950:    623  83  11  715
1477481777.951:    615  83  11  715
1477481777.951:    606  83  11  715
1477481777.951:    597  83  11  715
1477481777.951:    586  83  11  715
1477481777.952:    575  83  11  715
1477481777.952:    569  83  11  715
1477481777.952:    568  83  11  715
1477481777.964:    561  83  11  715
1477481777.972:    542  83  11  715
1477481777.972:    521  83  11  715
1477481777.973:    511  83  11  715
