timestamp: ADC HeartRate4sAverage HeartRate30sAverage HRV8sAverage
1477469530.518:    725 103  13  614
1477469530.518:    777 103  13  614
1477469530.518:    818 103  13  614
1477469530.520:    819 103  13  614
1477469530.520:    784 103  13  614
1477469530.521:    741 103  13  614
1477469530.521:    726 103  13  614
1477469530.521:    765 103  13  614
1477469530.521:    868 103  13  614
1477469530.524:   1036 103  13  614
1477469530.541:   1275 103  13  614
1477469530.541:   1591 103  13  614
1477469530.541:   1968 103  13  614
1477469530.541:   2339 103  13  614
1477469530.541:   2613 103  13  614
1477469530.542:   2747 103  13  614
1477469530.542:   2785 103  13  614
1477469530.542:   2781 103  13  614
1477469530.542:   2686 103  13  614
1477469530.543:   2354 103  13  614
1477469530.544:   1713 103  13  614
1477469530.546:    897 103  13  614
1477469530.546:    148 103  13  614
1477469530.549:   -436 103  13  614
1477469530.551:  -1009 103  13  614
1477469530.553:  -1786 103  13  614
1477469530.560:  -2746 103  13  614
1477469530.561:  -3598 103  13  614
1477469530.604:  -4052 103  13  614
1477469530.604:  -4085 103  13  614
1477469530.605:  -3916 103  13  614
1477469530.605:  -3733 103  13  614
1477469530.605:  -3514 103  13  614
1477469530.605:  -3106 103  13  614
1477469530.605:  -2442 103  13  614
1477469530.606:  -1624 103  13  614
1477469530.606:   -834 103  13  614
1477469530.606:   -191 103  13  614
1477469530.606:    289 103  13  614
1477469530.606:    639 103  13  614
1477469530.606:    884 103  13  614
1477469530.607:   1032 103  13  614
1477469530.607:   1098 103  13  614
1477469530.607:   1100 103  13  614
1477469530.607:   1069 103  13  614
1477469530.607:   1032 103  13  614
1477469530.607:   1010 103  13  614
1477469530.608:   1017 103  13  614
1477469530.608:   1061 103  13  614
1477469530.608:   1138 103  13  614
1477469530.608:   1228 103  13  614
1477469530.608:   1301 103  13  614
1477469530.609:   1333 103  13  614
1477469530.609:   1322 103  13  614
1477469530.612:   1290 103  13  614
1477469530.612:   1263 103  13  614
1477469530.622:   1252 103  13  614
1477469530.623:   1255 103  13  614
1477469530.623:   1269 103  13  614
1477469530.623:   1292 103  13  614
1477469530.623:   1321 103  13  614
1477469530.626:   1344 103  13  614
1477469530.626:   1346 103  13  614
1477469530.628:   1323 103  13  614
1477469530.630:   1283 103  13  614
1477469530.631:   1241 103  13  614
1477469530.634:   1209 103  13  614
1477469530.635:   1191 103  13  614
1477469530.645:   1187 103  13  614
1477469530.645:   1197 103  13  614
1477469530.661:   1217 103  13  614
1477469530.661:   1241 103  13  614
1477469530.661:   1256 103  13  614
1477469530.662:   1253 103  13  614
1477469530.662:   1233 103  13  614
1477469530.662:   1213 103  13  614
1477469530.663:   1205 103  13  614
1477469530.663:   1209 103  13  614
1477469530.663:   1213 103  13  614
1477469530.663:   1204 103  13  614
1477469530.663:   1191 103  13  614
1477469530.668:   1191 103  13  614
1477469530.669:   1210 103  13  614
1477469530.670:   1235 103  13  614
1477469530.681:   1247 103  13  614
1477469530.682:   1240 103  13  614
1477469530.682:   1226 103  13  614
1477469530.683:   1217 103  13  614
1477469530.683:   1216 103  13  614
1477469530.683:   1220 103  13  614
1477469530.683:   1225 103  13  614
1477469530.685:   1229 103  13  614
1477469530.686:   1231 103  13  614
1477469530.688:   1230 103  13  614
1477469530.688:   1236 103  13  614
1477469530.690:   1256 103  13  614
1477469530.700:   1283 103  13  614
1477469530.701:   1295 103  13  614
1477469530.701:   1283 103  13  614
1477469530.701:   1264 103  13  614
1477469530.701:   1263 103  13  614
1477469530.703:   1289 103  13  614
1477469530.705:   1322 103  13  614
1477469530.707:   1343 103  13  614
1477469530.708:   1353 103  13  614
1477469530.712:   1367 103  13  614
1477469530.724:   1390 103  13  614
1477469530.725:   1412 103  13  614
1477469530.726:   1423 103  13  614
1477469530.728:   1433 103  13  614
1477469530.729:   1453 103  13  614
1477469530.729:   1482 103  13  614
1477469530.731:   1507 103  13  614
1477469530.732:   1522 103  13  614
1477469530.732:   1534 103  13  614
1477469530.733:   1552 103  13  614
1477469530.736:   1575 103  13  614
1477469530.736:   1594 103  13  614
1477469530.737:   1610 103  13  614
1477469530.739:   1623 103  13  614
1477469530.740:   1636 103  13  614
1477469530.743:   1645 103  13  614
1477469530.744:   1654 103  13  614
1477469530.749:   1674 103  13  614
1477469530.758:   1708 103  13  614
1477469530.759:   1740 103  13  614
1477469530.759:   1749 103  13  614
1477469530.760:   1738 103  13  614
1477469530.761:   1732 103  13  614
1477469530.761:   1751 103  13  614
1477469530.762:   1787 103  13  614
1477469530.762:   1815 103  13  614
1477469530.763:   1823 103  13  614
1477469530.767:   1826 103  13  614
1477469530.768:   1839 103  13  614
1477469530.768:   1858 103  13  614
1477469530.771:   1865 103  13  614
1477469530.772:   1851 103  13  614
1477469530.775:   1823 103  13  614
1477469530.776:   1794 103  13  614
1477469530.789:   1768 103  13  614
1477469530.789:   1741 103  13  614
1477469530.789:   1716 103  13  614
1477469530.789:   1702 103  13  614
1477469530.790:   1695 103  13  614
1477469530.790:   1685 103  13  614
1477469530.792:   1661 103  13  614
1477469530.792:   1624 103  13  614
1477469530.795:   1582 103  13  614
1477469530.796:   1541 103  13  614
1477469530.799:   1497 103  13  614
1477469530.803:   1441 103  13  614
1477469530.808:   1376 103  13  614
1477469530.808:   1303 103  13  614
1477469530.808:   1228 103  13  614
1477469530.809:   1153 103  13  614
1477469530.810:   1081 103  13  614
1477469530.812:   1013 103  13  614
1477469530.817:    947 103  13  614
1477469530.817:    882 103  13  614
1477469530.818:    818 103  13  614
1477469530.820:    760 103  13  614
1477469530.822:    712 103  13  614
1477469530.824:    673 103  13  614
1477469530.826:    634 103  13  614
1477469530.830:    586 103  13  614
1477469530.843:    526 103  13  614
1477469530.844:    462 103  13  614
1477469530.845:    404 103  13  614
1477469530.845:    356 103  13  614
1477469530.846:    313 103  13  614
1477469530.846:    268 103  13  614
1477469530.847:    222 103  13  614
1477469530.848:    184 103  13  614
1477469530.849:    157 103  13  614
1477469530.849:    134 103  13  614
1477469530.850:    105 103  13  614
1477469530.851:     68 103  13  614
1477469530.864:     32 103  13  614
1477469530.865:      5 103  13  614
1477469530.865:    -21 103  13  614
1477469530.866:    -51 103  13  614
1477469530.867:    -82 103  13  614
1477469530.868:    -97 102  13  640
1477469530.869:    -93 102  13  640
1477469530.869:    -79 102  13  640
1477469530.872:    -74 102  13  640
1477469530.873:    -82 102  13  640
1477469530.886:    -95 102  13  640
1477469530.886:   -102 102  13  640
1477469530.887:   -100 102  13  640
1477469530.888:    -94 102  13  640
1477469530.889:    -86 102  13  640
1477469530.889:    -73 102  13  640
1477469530.890:    -51 102  13  640
1477469530.890:    -23 102  13  640
1477469530.891:     14 102  13  640
1477469530.892:     59 102  13  640
1477469530.892:    116 102  13  640
1477469530.895:    187 102  13  640
1477469530.906:    275 102  13  640
1477469530.907:    382 102  13  640
1477469530.908:    514 102  13  640
1477469530.909:    671 102  13  640
1477469530.910:    844 102  13  640
1477469530.911:   1023 102  13  640
1477469530.912:   1208 102  13  640
1477469530.913:   1411 102  13  640
1477469530.914:   1637 102  13  640
1477469530.917:   1872 102  13  640
1477469530.921:   2082 102  13  640
1477469530.921:   2256 102  13  640
1477469530.921:   2418 102  13  640
1477469530.922:   2614 102  13  640
1477469530.927:   2868 102  13  640
1477469530.927:   3151 102  13  640
1477469530.941:   3412 102  13  640
1477469530.942:   3624 102  13  640
1477469530.943:   3813 102  13  640
1477469530.944:   4030 102  13  640
1477469530.944:   4302 102  13  640
1477469530.944:   4617 102  13  640
1477469530.948:   4942 102  13  640
1477469530.949:   5255 102  13  640
1477469530.950:   5561 102  13  640
1477469530.950:   5886 102  13  640
1477469530.968:   6240 102  13  640
1477469530.969:   6603 102  13  640
1477469530.969:   6926 102  13  640
1477469530.969:   7157 102  13  640
1477469530.970:   7276 102  13  640
1477469530.970:   7288 102  13  640
1477469530.970:   7202 102  13  640
1477469530.970:   7007 102  13  640
1477469530.971:   6683 102  13  640
1477469530.971:   6240 102  13  640
1477469530.971:   5727 102  13  640
1477469530.971:   5200 102  13  640
1477469530.974:   4664 102  13  640
1477469530.974:   4063 102  13  640
1477469530.975:   3337 102  13  640
1477469530.977:   2506 102  13  640
1477469530.979:   1681 102  13  640
1477469530.981:    973 102  13  640
1477469530.983:    394 102  13  640
1477469530.986:   -146 102  13  640
1477469530.987:   -734 102  13  640
1477469530.989:  -1336 102  13  640
1477469530.990:  -1828 102  13  640
1477469530.993:  -2115 102  13  640
1477469530.996:  -2228 102  13  640
1477469531.000:  -2286 102  13  640
1477469531.002:  -2371 102  13  640
1477469531.002:  -2469 102  13  640
1477469531.004:  -2528 102  13  640
1477469531.006:  -2546 102  13  640
1477469531.021:  -2568 102  13  640
1477469531.021:  -2627 102  13  640
1477469531.022:  -2701 102  13  640
1477469531.022:  -2753 102  13  640
1477469531.023:  -2781 102  13  640
1477469531.023:  -2809 102  13  640
1477469531.024:  -2842 102  13  640
1477469531.024:  -2842 102  13  640
1477469531.026:  -2774 102  13  640
1477469531.029:  -2654 102  13  640
1477469531.040:  -2535 102  13  640
1477469531.041:  -2449 102  13  640
1477469531.042:  -2384 102  13  640
1477469531.042:  -2316 102  13  640
1477469531.043:  -2240 102  13  640
1477469531.048:  -2173 102  13  640
1477469531.048:  -2121 102  13  640
1477469531.048:  -2070 102  13  640
1477469531.049:  -2006 102  13  640
1477469531.049:  -1931 102  13  640
1477469531.049:  -1865 102  13  640
1477469531.049:  -1817 102  13  640
1477469531.050:  -1788 102  13  640
1477469531.051:  -1773 102  13  640
1477469531.062:  -1769 102  13  640
1477469531.063:  -1764 102  13  640
1477469531.063:  -1743 102  13  640
1477469531.063:  -1699 102  13  640
1477469531.063:  -1648 102  13  640
1477469531.065:  -1615 102  13  640
1477469531.065:  -1607 102  13  640
1477469531.068:  -1612 102  13  640
1477469531.069:  -1610 102  13  640
1477469531.073:  -1607 102  13  640
1477469531.080:  -1620 102  13  640
1477469531.081:  -1652 102  13  640
1477469531.082:  -1687 102  13  640
1477469531.082:  -1703 102  13  640
1477469531.084:  -1699 102  13  640
1477469531.084:  -1690 102  13  640
1477469531.088:  -1686 102  13  640
1477469531.089:  -1686 102  13  640
1477469531.111:  -1679 102  13  640
1477469531.112:  -1665 102  13  640
1477469531.112:  -1655 102  13  640
1477469531.112:  -1661 102  13  640
1477469531.112:  -1682 102  13  640
1477469531.112:  -1705 102  13  640
1477469531.112:  -1718 102  13  640
1477469531.113:  -1716 102  13  640
1477469531.113:  -1708 102  13  640
1477469531.113:  -1707 102  13  640
1477469531.113:  -1715 102  13  640
1477469531.113:  -1726 102  13  640
1477469531.115:  -1733 102  13  640
1477469531.115:  -1741 102  13  640
1477469531.117:  -1763 102  13  640
1477469531.124:  -1802 102  13  640
1477469531.136:  -1845 102  13  640
1477469531.136:  -1871 102  13  640
1477469531.136:  -1873 102  13  640
1477469531.136:  -1865 102  13  640
1477469531.136:  -1862 102  13  640
1477469531.136:  -1869 102  13  640
1477469531.137:  -1878 102  13  640
1477469531.139:  -1876 102  13  640
1477469531.139:  -1861 102  13  640
1477469531.140:  -1844 102  13  640
1477469531.142:  -1836 102  13  640
1477469531.143:  -1840 102  13  640
1477469531.146:  -1841 102  13  640
1477469531.146:  -1825 102  13  640
1477469531.156:  -1792 102  13  640
1477469531.156:  -1762 102  13  640
1477469531.156:  -1752 102  13  640
1477469531.157:  -1754 102  13  640
1477469531.158:  -1738 102  13  640
1477469531.158:  -1687 102  13  640
1477469531.191:  -1613 102  13  640
1477469531.242:  -1545 102  13  640
1477469531.271:  -1495 102  13  640
1477469531.272:  -1447 102  13  640
1477469531.273:  -1382 102  13  640
1477469531.275:  -1300 102  13  640
1477469531.276:  -1220 102  13  640
1477469531.277:  -1152 102  13  640
1477469531.280:  -1085 102  13  640
1477469531.280:  -1007 102  13  640
1477469531.281:   -920 102  13  640
1477469531.281:   -830 102  13  640
1477469531.282:   -733 102  13  640
1477469531.283:   -619 102  13  640
1477469531.299:   -490 102  13  640
1477469531.300:   -369 102  13  640
1477469531.302:   -270 102  13  640
1477469531.302:   -179 102  13  640
1477469531.303:    -70 102  13  640
1477469531.303:     54 102  13  640
1477469531.303:    159 102  13  640
1477469531.304:    225 102  13  640
1477469531.304:    276 102  13  640
1477469531.304:    359 102  13  640
1477469531.305:    480 102  13  640
1477469531.305:    600 102  13  640
1477469531.305:    679 102  13  640
1477469531.306:    732 102  13  640
1477469531.306:    809 102  13  640
1477469531.306:    931 102  13  640
1477469531.307:   1068 102  13  640
1477469531.307:   1177 102  13  640
1477469531.307:   1256 102  13  640
1477469531.307:   1336 102  13  640
1477469531.318:   1435 102  13  640
1477469531.319:   1530 102  13  640
1477469531.320:   1588 102  13  640
1477469531.320:   1612 102  13  640
1477469531.321:   1629 102  13  640
1477469531.322:   1658 102  13  640
1477469531.322:   1689 102  13  640
1477469531.323:   1702 102  13  640
1477469531.324:   1700 102  13  640
1477469531.325:   1711 102  13  640
1477469531.326:   1748 102  13  640
1477469531.326:   1797 102  13  640
1477469531.327:   1831 102  13  640
1477469531.327:   1838 102  13  640
1477469531.328:   1828 102  13  640
1477469531.329:   1820 102  13  640
1477469531.329:   1818 102  13  640
1477469531.329:   1809 102  13  640
1477469531.330:   1784 102  13  640
1477469531.330:   1747 102  13  640
1477469531.330:   1715 102  13  640
1477469531.330:   1700 102  13  640
1477469531.331:   1693 102  13  640
1477469531.331:   1678 102  13  640
1477469531.331:   1647 102  13  640
1477469531.331:   1611 102  13  640
1477469531.332:   1590 102  13  640
1477469531.332:   1588 102  13  640
1477469531.332:   1592 102  13  640
1477469531.332:   1582 102  13  640
1477469531.333:   1559 102  13  640
1477469531.333:   1540 102  13  640
1477469531.333:   1537 102  13  640
1477469531.333:   1541 102  13  640
1477469531.334:   1534 102  13  640
1477469531.334:   1512 102  13  640
1477469531.334:   1491 102  13  640
1477469531.334:   1487 102  13  640
1477469531.335:   1498 102  13  640
1477469531.335:   1506 102  13  640
1477469531.335:   1501 102  13  640
1477469531.335:   1490 102  13  640
1477469531.335:   1483 102  13  640
1477469531.336:   1478 102  13  640
1477469531.336:   1460 102  13  640
1477469531.336:   1424 102  13  640
1477469531.336:   1379 102  13  640
1477469531.337:   1344 102  13  640
1477469531.337:   1329 102  13  640
1477469531.337:   1325 102  13  640
1477469531.337:   1321 102  13  640
1477469531.338:   1310 102  13  640
1477469531.339:   1293 102  13  640
1477469531.339:   1277 102  13  640
1477469531.343:   1267 102  13  640
1477469531.343:   1265 102  13  640
1477469531.345:   1267 102  13  640
1477469531.346:   1268 102  13  640
1477469531.365:   1261 102  13  640
1477469531.366:   1253 102  13  640
1477469531.366:   1250 102  13  640
1477469531.367:   1258 102  13  640
1477469531.368:   1273 102  13  640
1477469531.369:   1286 102  13  640
1477469531.370:   1289 102  13  640
1477469531.371:   1280 102  13  640
1477469531.371:   1264 102  13  640
1477469531.372:   1248 102  13  640
1477469531.373:   1241 102  13  640
1477469531.373:   1245 102  13  640
1477469531.383:   1255 102  13  640
1477469531.384:   1258 102  13  640
1477469531.385:   1249 102  13  640
1477469531.386:   1230 102  13  640
1477469531.387:   1217 102  13  640
1477469531.387:   1215 102  13  640
1477469531.388:   1221 102  13  640
1477469531.389:   1225 102  13  640
1477469531.389:   1228 102  13  640
1477469531.389:   1237 102  13  640
1477469531.389:   1255 102  13  640
1477469531.390:   1274 102  13  640
1477469531.390:   1281 102  13  640
1477469531.390:   1274 102  13  640
1477469531.401:   1267 102  13  640
1477469531.403:   1268 102  13  640
1477469531.406:   1270 102  13  640
1477469531.406:   1261 102  13  640
1477469531.408:   1239 102  13  640
1477469531.409:   1223 102  13  640
1477469531.409:   1233 102  13  640
1477469531.409:   1263 102  13  640
1477469531.409:   1292 102  13  640
1477469531.410:   1302 102  13  640
1477469531.411:   1298 102  13  640
1477469531.413:   1296 102  13  640
1477469531.422:   1304 102  13  640
1477469531.422:   1316 102  13  640
1477469531.422:   1318 102  13  640
1477469531.422:   1307 102  13  640
1477469531.423:   1289 102  13  640
1477469531.424:   1274 102  13  640
1477469531.431:   1270 102  13  640
1477469531.431:   1273 102  13  640
1477469531.431:   1274 102  13  640
1477469531.433:   1263 102  13  640
1477469531.446:   1243 102  13  640
1477469531.446:   1225 102  13  640
1477469531.447:   1217 102  13  640
1477469531.447:   1215 102  13  640
1477469531.447:   1210 102  13  640
1477469531.447:   1196 102  13  640
1477469531.447:   1180 102  13  640
1477469531.450:   1165 102  13  640
1477469531.455:   1149 102  13  640
1477469531.455:   1127 102  13  640
1477469531.458:   1096 102  13  640
1477469531.460:   1064 102  13  640
1477469531.466:   1041 102  13  640
1477469531.466:   1033 102  13  640
1477469531.467:   1037 102  13  640
1477469531.467:   1043 102  13  640
1477469531.467:   1040 102  13  640
1477469531.469:   1025 102  13  640
1477469531.471:   1006 102  13  640
1477469531.471:    989 102  13  640
1477469531.475:    972 102  13  640
1477469531.475:    950 102  13  640
1477469531.477:    921 102  13  640
1477469531.479:    895 102  13  640
1477469531.487:    880 102  13  640
1477469531.488:    874  90  12  616
1477469531.488:    869  90  12  616
1477469531.488:    863  90  12  616
1477469531.488:    860  90  12  616
1477469531.495:    859  90  12  616
1477469531.495:    844  90  12  616
1477469531.496:    805  90  12  616
1477469531.497:    753  90  12  616
1477469531.499:    711  90  12  616
1477469531.505:    690  90  12  616
1477469531.505:    678  90  12  616
1477469531.506:    662  90  12  616
1477469531.507:    644  90  12  616
1477469531.521:    633  90  12  616
1477469531.522:    633  90  12  616
1477469531.523:    633  90  12  616
1477469531.523:    626  90  12  616
1477469531.524:    621  90  12  616
1477469531.525:    623  90  12  616
1477469531.526:    628  90  12  616
1477469531.527:    624  90  12  616
1477469531.529:    610  90  12  616
1477469531.530:    601  90  12  616
1477469531.541:    607  90  12  616
1477469531.542:    621  90  12  616
1477469531.543:    629  90  12  616
1477469531.545:    623  90  12  616
1477469531.546:    608  90  12  616
1477469531.547:    594  90  12  616
1477469531.548:    586  90  12  616
1477469531.549:    584  90  12  616
1477469531.549:    582  90  12  616
1477469531.550:    571  90  12  616
1477469531.550:    547  90  12  616
1477469531.555:    515  90  12  616
1477469531.567:    491  90  12  616
1477469531.568:    482  90  12  616
1477469531.569:    482  90  12  616
1477469531.570:    476  90  12  616
1477469531.571:    458  90  12  616
1477469531.571:    436  90  12  616
1477469531.572:    426  90  12  616
1477469531.578:    431  90  12  616
1477469531.587:    442  90  12  616
1477469531.587:    444  90  12  616
1477469531.587:    433  90  12  616
1477469531.587:    413  90  12  616
1477469531.587:    392  90  12  616
1477469531.587:    378  90  12  616
1477469531.588:    373  90  12  616
1477469531.588:    372  90  12  616
1477469531.588:    370  90  12  616
1477469531.589:    366  90  12  616
1477469531.589:    365  90  12  616
1477469531.590:    367  90  12  616
1477469531.595:    372  90  12  616
1477469531.595:    375  90  12  616
1477469531.596:    374  90  12  616
1477469531.598:    370  90  12  616
1477469531.598:    366  90  12  616
1477469531.601:    366  90  12  616
1477469531.615:    370  90  12  616
1477469531.615:    377  90  12  616
1477469531.616:    382  90  12  616
1477469531.616:    384  90  12  616
1477469531.616:    384  90  12  616
1477469531.616:    387  90  12  616
1477469531.616:    392  90  12  616
1477469531.616:    391  90  12  616
1477469531.623:    383  90  12  616
1477469531.623:    377  90  12  616
1477469531.624:    385  90  12  616
1477469531.625:    407  90  12  616
1477469531.636:    426  90  12  616
1477469531.636:    428  90  12  616
1477469531.637:    416  90  12  616
1477469531.637:    403  90  12  616
1477469531.637:    401  90  12  616
1477469531.639:    406  90  12  616
1477469531.641:    404  90  12  616
1477469531.641:    386  90  12  616
1477469531.642:    359  90  12  616
1477469531.645:    337  90  12  616
1477469531.651:    330  90  12  616
1477469531.651:    333  90  12  616
1477469531.651:    330  90  12  616
1477469531.655:    311  90  12  616
1477469531.673:    286  90  12  616
1477469531.674:    277  90  12  616
1477469531.674:    300  90  12  616
1477469531.674:    347  90  12  616
1477469531.674:    399  90  12  616
1477469531.675:    440  90  12  616
1477469531.675:    472  90  12  616
1477469531.675:    505  90  12  616
1477469531.675:    545  90  12  616
1477469531.676:    587  90  12  616
1477469531.676:    625  90  12  616
1477469531.676:    652  90  12  616
1477469531.677:    668  90  12  616
1477469531.684:    678  90  12  616
1477469531.685:    687  90  12  616
1477469531.687:    702  90  12  616
1477469531.690:    724  90  12  616
1477469531.690:    746  90  12  616
1477469531.706:    762  90  12  616
1477469531.707:    767  90  12  616
1477469531.708:    764  90  12  616
1477469531.709:    754  90  12  616
1477469531.709:    741  90  12  616
1477469531.710:    732  90  12  616
1477469531.710:    736  90  12  616
1477469531.711:    750  90  12  616
1477469531.712:    761  90  12  616
1477469531.712:    752  90  12  616
1477469531.713:    723  90  12  616
1477469531.713:    688  90  12  616
1477469531.714:    656  90  12  616
1477469531.715:    622  90  12  616
1477469531.728:    577  90  12  616
1477469531.728:    523  90  12  616
1477469531.728:    479  90  12  616
1477469531.728:    452  90  12  616
1477469531.728:    430  90  12  616
1477469531.729:    394  90  12  616
1477469531.729:    343  90  12  616
1477469531.731:    303  90  12  616
1477469531.733:    293  90  12  616
1477469531.737:    304  90  12  616
1477469531.755:    303  90  12  616
1477469531.756:    277  90  12  616
1477469531.756:    242  90  12  616
1477469531.756:    229  90  12  616
1477469531.756:    246  90  12  616
1477469531.756:    274  90  12  616
1477469531.756:    294  90  12  616
1477469531.757:    301  90  12  616
1477469531.757:    303  90  12  616
1477469531.757:    302  90  12  616
1477469531.757:    294  90  12  616
1477469531.757:    286  90  12  616
1477469531.760:    293  90  12  616
1477469531.765:    323  90  12  616
1477469531.765:    358  90  12  616
1477469531.768:    372  90  12  616
1477469531.777:    364  90  12  616
1477469531.777:    364  90  12  616
1477469531.777:    394  90  12  616
1477469531.777:    439  90  12  616
1477469531.780:    471  90  12  616
1477469531.783:    476  90  12  616
1477469531.783:    472  90  12  616
1477469531.790:    479  90  12  616
1477469531.856:    506  90  12  616
1477469531.858:    566  90  12  616
1477469531.858:    691  90  12  616
1477469531.858:    917  90  12  616
1477469531.858:   1247  90  12  616
1477469531.859:   1628  90  12  616
1477469531.859:   1982  90  12  616
1477469531.859:   2251  90  12  616
1477469531.859:   2428  90  12  616
1477469531.859:   2542  90  12  616
1477469531.859:   2611  90  12  616
1477469531.859:   2595  90  12  616
1477469531.879:   2400  90  12  616
1477469531.879:   1954  90  12  616
1477469531.880:   1296  90  12  616
1477469531.880:    567  90  12  616
1477469531.880:   -115  90  12  616
1477469531.880:   -767  90  12  616
1477469531.880:  -1515  90  12  616
1477469531.880:  -2416  90  12  616
1477469531.881:  -3338  90  12  616
1477469531.881:  -4047  90  12  616
1477469531.881:  -4404  90  12  616
1477469531.881:  -4464  90  12  616
1477469531.881:  -4366  90  12  616
1477469531.882:  -4165  90  12  616
1477469531.882:  -3801  90  12  616
1477469531.882:  -3210  90  12  616
1477469531.882:  -2435  90  12  616
1477469531.883:  -1614  90  12  616
1477469531.883:   -878  90  12  616
1477469531.883:   -282  90  12  616
1477469531.883:    171  90  12  616
1477469531.883:    487  90  12  616
1477469531.884:    671  90  12  616
1477469531.884:    740  90  12  616
1477469531.884:    732  90  12  616
1477469531.884:    690  90  12  616
1477469531.884:    651  90  12  616
1477469531.884:    638  90  12  616
1477469531.885:    664  90  12  616
1477469531.885:    730  90  12  616
1477469531.885:    832  90  12  616
1477469531.885:    952  90  12  616
1477469531.885:   1064  90  12  616
1477469531.886:   1131  90  12  616
1477469531.886:   1127  90  12  616
1477469531.886:   1063  90  12  616
1477469531.886:    986 110  14  587
1477469531.886:    948 110  14  587
1477469531.887:    964 110  14  587
1477469531.887:   1011 110  14  587
1477469531.887:   1049 110  14  587
1477469531.890:   1065 110  14  587
1477469531.892:   1071 110  14  587
1477469531.895:   1082 110  14  587
1477469531.897:   1086 110  14  587
1477469531.897:   1060 110  14  587
1477469531.901:   1000 110  14  587
1477469531.902:    931 110  14  587
1477469531.916:    895 110  14  587
1477469531.917:    901 110  14  587
1477469531.917:    924 110  14  587
1477469531.917:    934 110  14  587
1477469531.930:    924 110  14  587
1477469531.932:    912 110  14  587
1477469531.933:    910 110  14  587
1477469531.938:    910 110  14  587
1477469531.938:    897 110  14  587
1477469531.938:    874 110  14  587
1477469531.955:    864 110  14  587
1477469531.955:    878 110  14  587
1477469531.955:    902 110  14  587
1477469531.955:    912 110  14  587
1477469531.955:    902 110  14  587
1477469531.956:    892 110  14  587
1477469531.956:    894 110  14  587
1477469531.956:    900 110  14  587
1477469531.956:    892 110  14  587
1477469531.956:    871 110  14  587
1477469531.956:    858 110  14  587
1477469531.957:    869 110  14  587
1477469531.957:    887 110  14  587
1477469531.957:    885 110  14  587
1477469531.957:    857 110  14  587
1477469531.957:    822 110  14  587
1477469531.958:    801 110  14  587
1477469531.958:    793 110  14  587
1477469531.958:    780 110  14  587
1477469531.958:    752 110  14  587
1477469531.960:    721 110  14  587
1477469531.962:    710 110  14  587
1477469531.965:    728 110  14  587
1477469531.970:    759 110  14  587
1477469531.971:    777 110  14  587
1477469531.971:    771 110  14  587
1477469531.973:    753 110  14  587
1477469531.974:    740 110  14  587
1477469531.984:    744 110  14  587
1477469531.984:    754 110  14  587
1477469531.984:    755 110  14  587
1477469531.984:    744 110  14  587
1477469531.985:    736 110  14  587
1477469531.987:    744 110  14  587
1477469531.987:    764 110  14  587
1477469531.991:    783 110  14  587
1477469531.993:    793 110  14  587
1477469531.996:    804 110  14  587
1477469532.015:    823 110  14  587
1477469532.016:    850 110  14  587
1477469532.016:    872 110  14  587
1477469532.016:    886 110  14  587
1477469532.016:    901 110  14  587
1477469532.016:    928 110  14  587
1477469532.016:    962 110  14  587
1477469532.016:    989 110  14  587
1477469532.016:   1001 110  14  587
1477469532.017:   1001 110  14  587
1477469532.017:   1003 110  14  587
1477469532.021:   1013 110  14  587
1477469532.021:   1030 110  14  587
1477469532.024:   1052 110  14  587
1477469532.025:   1072 110  14  587
1477469532.028:   1088 110  14  587
1477469532.028:   1098 110  14  587
1477469532.030:   1107 110  14  587
1477469532.042:   1122 110  14  587
1477469532.042:   1139 110  14  587
1477469532.043:   1148 110  14  587
1477469532.043:   1145 110  14  587
1477469532.043:   1140 110  14  587
1477469532.043:   1146 110  14  587
1477469532.044:   1167 110  14  587
1477469532.045:   1188 110  14  587
1477469532.047:   1196 110  14  587
1477469532.048:   1189 110  14  587
1477469532.051:   1177 110  14  587
1477469532.052:   1169 110  14  587
1477469532.067:   1160 110  14  587
1477469532.068:   1145 110  14  587
1477469532.068:   1127 110  14  587
1477469532.068:   1117 110  14  587
1477469532.068:   1119 110  14  587
1477469532.068:   1125 110  14  587
1477469532.068:   1130 110  14  587
1477469532.070:   1133 110  14  587
1477469532.071:   1136 110  14  587
1477469532.072:   1130 110  14  587
1477469532.075:   1107 110  14  587
1477469532.076:   1066 110  14  587
1477469532.079:   1021 110  14  587
1477469532.080:    990 110  14  587
1477469532.084:    969 110  14  587
1477469532.084:    941 110  14  587
1477469532.086:    896 110  14  587
1477469532.088:    840 110  14  587
1477469532.101:    786 110  14  587
1477469532.101:    734 110  14  587
1477469532.101:    674 110  14  587
1477469532.102:    608 110  14  587
1477469532.102:    546 110  14  587
1477469532.102:    496 110  14  587
1477469532.102:    455 110  14  587
1477469532.103:    410 110  14  587
1477469532.106:    363 110  14  587
1477469532.107:    325 110  14  587
1477469532.111:    301 110  14  587
1477469532.112:    282 110  14  587
1477469532.120:    257 110  14  587
1477469532.120:    220 110  14  587
1477469532.121:    180 110  14  587
1477469532.121:    148 110  14  587
1477469532.121:    124 110  14  587
1477469532.125:    107 110  14  587
1477469532.125:     90 110  14  587
1477469532.128:     65 110  14  587
1477469532.137:     29 110  14  587
1477469532.138:    -20 110  14  587
1477469532.138:    -72 110  14  587
1477469532.139:   -118 110  14  587
1477469532.139:   -152 110  14  587
1477469532.139:   -176 110  14  587
1477469532.141:   -196 110  14  587
1477469532.143:   -217 110  14  587
1477469532.145:   -244 110  14  587
1477469532.147:   -274 110  14  587
1477469532.148:   -297 110  14  587
1477469532.153:   -303 110  14  587
1477469532.153:   -298 110  14  587
1477469532.154:   -303 110  14  587
1477469532.166:   -328 110  14  587
1477469532.166:   -360 110  14  587
1477469532.167:   -373 110  14  587
1477469532.167:   -366 110  14  587
1477469532.196:   -358 110  14  587
1477469532.402:   -370 110  14  587
1477469532.409:   -390 110  14  587
1477469532.410:   -394 110  14  587
1477469532.410:   -374 110  14  587
1477469532.410:   -354 110  14  587
1477469532.410:   -357 110  14  587
1477469532.410:   -375 110  14  587
1477469532.410:   -376 110  14  587
1477469532.410:   -347 110  14  587
1477469532.411:   -308 110  14  587
1477469532.411:   -288 110  14  587
1477469532.411:   -290 110  14  587
1477469532.411:   -291 110  14  587
1477469532.411:   -281 110  14  587
1477469532.411:   -271 110  14  587
1477469532.412:   -272 110  14  587
1477469532.412:   -274 110  14  587
1477469532.412:   -252 110  14  587
1477469532.412:   -209 110  14  587
1477469532.412:   -178 110  14  587
1477469532.413:   -183 110  14  587
1477469532.413:   -203 110  14  587
1477469532.413:   -199 110  14  587
1477469532.413:   -160 110  14  587
1477469532.413:   -122 110  14  587
1477469532.413:   -115 110  14  587
1477469532.413:   -128 110  14  587
1477469532.414:   -117 110  14  587
1477469532.414:    -65 110  14  587
1477469532.414:      1 110  14  587
1477469532.414:     49 110  14  587
1477469532.414:     74 110  14  587
1477469532.414:     99 110  14  587
1477469532.415:    135 110  14  587
1477469532.415:    163 110  14  587
1477469532.415:    165 110  14  587
1477469532.415:    147 110  14  587
1477469532.415:    132 110  14  587
1477469532.415:    135 110  14  587
1477469532.415:    150 110  14  587
1477469532.416:    162 110  14  587
1477469532.416:    165 110  14  587
1477469532.416:    166 110  14  587
1477469532.416:    176 110  14  587
1477469532.416:    196 110  14  587
1477469532.416:    224 110  14  587
1477469532.416:    251 110  14  587
1477469532.417:    272 110  14  587
1477469532.417:    290 110  14  587
1477469532.417:    303 110  14  587
1477469532.417:    307 110  14  587
1477469532.417:    296 110  14  587
1477469532.417:    270 110  14  587
1477469532.417:    244 110  14  587
1477469532.418:    232 110  14  587
1477469532.419:    230 110  14  587
1477469532.419:    223 110  14  587
1477469532.420:    207 110  14  587
1477469532.422:    198 110  14  587
1477469532.437:    219 110  14  587
1477469532.437:    272 110  14  587
1477469532.437:    332 110  14  587
1477469532.437:    371 110  14  587
1477469532.437:    385 110  14  587
1477469532.438:    392 110  14  587
1477469532.438:    416 110  14  587
1477469532.438:    456 110  14  587
1477469532.438:    496 110  14  587
1477469532.438:    523 110  14  587
1477469532.438:    537 110  14  587
1477469532.438:    545 110  14  587
1477469532.439:    550 110  14  587
1477469532.439:    553 110  14  587
1477469532.439:    554 110  14  587
1477469532.439:    550 110  14  587
1477469532.439:    539 110  14  587
1477469532.439:    511 110  14  587
1477469532.439:    469 110  14  587
1477469532.440:    427 110  14  587
1477469532.440:    399 110  14  587
1477469532.440:    395 110  14  587
1477469532.440:    405 110  14  587
1477469532.440:    419 110  14  587
1477469532.440:    425 110  14  587
1477469532.440:    420 110  14  587
1477469532.441:    405 110  14  587
1477469532.441:    382 110  14  587
1477469532.441:    356 110  14  587
1477469532.441:    322 110  14  587
1477469532.441:    270 110  14  587
1477469532.441:    191 110  14  587
1477469532.442:     95 110  14  587
1477469532.442:      8 110  14  587
1477469532.442:    -56 110  14  587
1477469532.442:   -102 110  14  587
1477469532.442:   -155 110  14  587
1477469532.442:   -222 110  14  587
1477469532.442:   -285 110  14  587
1477469532.443:   -314 110  14  587
1477469532.443:   -305 110  14  587
1477469532.443:   -279 110  14  587
1477469532.443:   -267 110  14  587
1477469532.443:   -275 110  14  587
1477469532.443:   -286 110  14  587
1477469532.443:   -281 110  14  587
1477469532.443:   -261 110  14  587
1477469532.444:   -246 110  14  587
1477469532.444:   -247 110  14  587
1477469532.444:   -260 110  14  587
1477469532.444:   -265 110  14  587
1477469532.445:   -258 110  14  587
1477469532.445:   -244 110  14  587
1477469532.445:   -232 110  14  587
1477469532.445:   -219 110  14  587
1477469532.445:   -199 110  14  587
1477469532.445:   -179 110  14  587
1477469532.445:   -174 110  14  587
1477469532.446:   -186 110  14  587
1477469532.446:   -190 110  14  587
1477469532.446:   -163 110  14  587
1477469532.446:   -111 110  14  587
1477469532.446:    -69 110  14  587
1477469532.447:    -62 110  14  587
1477469532.447:    -78 110  14  587
1477469532.447:    -81 110  14  587
1477469532.448:    -45 110  14  587
1477469532.449:     33 110  14  587
1477469532.449:    148 110  14  587
1477469532.449:    314 110  14  587
1477469532.450:    563 110  14  587
1477469532.450:    922 110  14  587
1477469532.450:   1356 110  14  587
1477469532.450:   1769 110  14  587
1477469532.451:   2049 110  14  587
1477469532.452:   2166 110  14  587
1477469532.463:   2183 110  14  587
1477469532.464:   2161 110  14  587
1477469532.464:   2033 110  14  587
1477469532.464:   1631 110  14  587
1477469532.464:    878 110  14  587
1477469532.464:    -68 110  14  587
1477469532.464:   -929 110  14  587
1477469532.465:  -1587 110  14  587
1477469532.465:  -2206 110  14  587
1477469532.466:  -3020 110  14  587
1477469532.466:  -4021 110  14  587
1477469532.466:  -4913 110  14  587
1477469532.466:  -5398 110  14  587
1477469532.466:  -5448 110  14  587
1477469532.466:  -5273 110  14  587
1477469532.466:  -5055 110  14  587
1477469532.466:  -4774 110  14  587
1477469532.468:  -4302 110  14  587
1477469532.468:  -3594 110  14  587
1477469532.470:  -2747 110  14  587
1477469532.471:  -1912 110  14  587
1477469532.472:  -1190 110  14  587
1477469532.486:   -618 110  14  587
1477469532.486:   -210 110  14  587
1477469532.486:     41 110  14  587
1477469532.487:    172 110  14  587
1477469532.487:    234 110  14  587
1477469532.487:    251 110  14  587
1477469532.487:    229 110  14  587
1477469532.492:    182 110  14  587
1477469532.492:    149 110  14  587
1477469532.495:    167 110  14  587
1477469532.506:    235 110  14  587
1477469532.506:    324 110  14  587
1477469532.506:    411 110  14  587
1477469532.506:    487 110  14  587
1477469532.506:    551 110  14  587
1477469532.506:    586 110  14  587
1477469532.509:    576 110  14  587
1477469532.509:    531 110  14  587
1477469532.511:    479 110  14  587
1477469532.512:    448 110  14  587
1477469532.513:    448 110  14  587
1477469532.516:    467 110  14  587
1477469532.519:    490 110  14  587
1477469532.520:    505 110  14  587
1477469532.531:    504 110  14  587
1477469532.531:    489 110  14  587
1477469532.531:    465 110  14  587
1477469532.532:    443 110  14  587
1477469532.532:    432 110  14  587
1477469532.532:    431 110  14  587
1477469532.534:    439 110  14  587
1477469532.536:    457 110  14  587
1477469532.537:    487 110  14  587
1477469532.544:    523 110  14  587
1477469532.557:    551 110  14  587
1477469532.557:    556 110  14  587
1477469532.557:    540 110  14  587
1477469532.557:    519 110  14  587
1477469532.557:    509 110  14  587
1477469532.557:    514 110  14  587
1477469532.558:    524 110  14  587
1477469532.558:    523 110  14  587
1477469532.558:    513 110  14  587
1477469532.560:    509 110  14  587
1477469532.561:    523 110  14  587
1477469532.563:    549 110  14  587
1477469532.565:    568 110  14  587
1477469532.569:    569 110  14  587
1477469532.578:    560 110  14  587
1477469532.578:    554 110  14  587
1477469532.579:    549 110  14  587
1477469532.579:    525 110  14  587
1477469532.579:    474 110  14  587
1477469532.605:    416 110  14  587
1477469532.616:    379 110  14  587
1477469532.616:    367 110  14  587
1477469532.616:    360 110  14  587
1477469532.616:    337 110  14  587
1477469532.616:    308 110  14  587
1477469532.616:    300 110  14  587
1477469532.617:    316 110  14  587
1477469532.617:    333 110  14  587
1477469532.617:    329 110  14  587
1477469532.617:    314 110  14  587
1477469532.617:    315 110  14  587
1477469532.618:    342 110  14  587
1477469532.618:    370 110  14  587
1477469532.618:    372 110  14  587
1477469532.618:    344 110  14  587
1477469532.618:    315 110  14  587
1477469532.618:    308 110  14  587
1477469532.619:    316 110  14  587
1477469532.619:    319 110  14  587
1477469532.619:    301 110  14  587
1477469532.620:    278 110  14  587
1477469532.624:    272 110  14  587
1477469532.624:    295 110  14  587
1477469532.626:    329 110  14  587
1477469532.635:    352 110  14  587
1477469532.635:    352 110  14  587
1477469532.636:    339 110  14  587
1477469532.636:    329 110  14  587
1477469532.636:    331 110  14  587
1477469532.637:    337 110  14  587
1477469532.641:    341 110  14  587
1477469532.642:    343 110  14  587
1477469532.643:    346 110  14  587
1477469532.646:    352 110  14  587
1477469532.655:    355 110  14  587
1477469532.655:    351 110  14  587
1477469532.655:    345 110  14  587
1477469532.655:    348 110  14  587
1477469532.656:    362 110  14  587
1477469532.657:    377 110  14  587
1477469532.658:    379 110  14  587
1477469532.665:    372 110  14  587
1477469532.674:    373 110  14  587
1477469532.674:    392 110  14  587
1477469532.675:    420 110  14  587
1477469532.675:    436 110  14  587
1477469532.675:    426 110  14  587
1477469532.675:    395 110  14  587
1477469532.679:    357 110  14  587
1477469532.679:    325 110  14  587
1477469532.679:    299 110  14  587
1477469532.685:    282 110  14  587
1477469532.695:    269 110  14  587
1477469532.696:    247 110  14  587
1477469532.696:    203 110  14  587
1477469532.696:    139 110  14  587
1477469532.696:     72 110  14  587
1477469532.696:     17 110  14  587
1477469532.697:    -32 110  14  587
1477469532.697:    -97 110  14  587
1477469532.699:   -180 110  14  587
1477469532.699:   -262 110  14  587
1477469532.705:   -320 110  14  587
1477469532.705:   -355 110  14  587
1477469532.714:   -393 110  14  587
1477469532.714:   -454 110  14  587
1477469532.714:   -528 110  14  587
1477469532.714:   -590 110  14  587
1477469532.714:   -631 110  14  587
1477469532.719:   -673 110  14  587
1477469532.719:   -743 110  14  587
1477469532.722:   -839 110  14  587
1477469532.731:   -930 110  14  587
1477469532.731:   -982 110  14  587
1477469532.731:  -1005 110  14  587
1477469532.732:  -1037 110  14  587
1477469532.732:  -1106 110  14  587
1477469532.732:  -1187 110  14  587
1477469532.736:  -1235 110  14  587
1477469532.737:  -1232 110  14  587
1477469532.739:  -1215 110  14  587
1477469532.741:  -1228 110  14  587
1477469532.748:  -1273 110  14  587
1477469532.749:  -1309 110  14  587
1477469532.749:  -1311 110  14  587
1477469532.749:  -1301 110  14  587
1477469532.751:  -1320 110  14  587
1477469532.753:  -1377 103  13  623
1477469532.755:  -1438 103  13  623
1477469532.756:  -1472 103  13  623
1477469532.766:  -1485 103  13  623
1477469532.766:  -1501 103  13  623
1477469532.766:  -1529 103  13  623
1477469532.766:  -1553 103  13  623
1477469532.766:  -1555 103  13  623
1477469532.767:  -1537 103  13  623
1477469532.770:  -1515 103  13  623
1477469532.775:  -1506 103  13  623
1477469532.783:  -1512 103  13  623
1477469532.784:  -1529 103  13  623
1477469532.784:  -1545 103  13  623
1477469532.784:  -1548 103  13  623
1477469532.784:  -1540 103  13  623
1477469532.784:  -1532 103  13  623
1477469532.788:  -1539 103  13  623
1477469532.788:  -1562 103  13  623
1477469532.790:  -1584 103  13  623
1477469532.791:  -1592 103  13  623
1477469532.792:  -1589 103  13  623
1477469532.798:  -1583 103  13  623
1477469532.803:  -1582 103  13  623
1477469532.804:  -1582 103  13  623
1477469532.804:  -1579 103  13  623
1477469532.804:  -1569 103  13  623
1477469532.805:  -1551 103  13  623
1477469532.806:  -1526 103  13  623
1477469532.809:  -1504 103  13  623
1477469532.811:  -1496 103  13  623
1477469532.818:  -1499 103  13  623
1477469532.819:  -1499 103  13  623
1477469532.826:  -1489 103  13  623
1477469532.826:  -1476 103  13  623
1477469532.827:  -1474 103  13  623
1477469532.827:  -1478 103  13  623
1477469532.827:  -1471 103  13  623
1477469532.829:  -1446 103  13  623
1477469532.830:  -1419 103  13  623
1477469532.831:  -1409 103  13  623
1477469532.832:  -1416 103  13  623
1477469532.833:  -1418 103  13  623
1477469532.844:  -1405 103  13  623
1477469532.845:  -1384 103  13  623
1477469532.845:  -1371 103  13  623
1477469532.845:  -1366 103  13  623
1477469532.846:  -1359 103  13  623
1477469532.846:  -1345 103  13  623
1477469532.847:  -1333 103  13  623
1477469532.850:  -1330 103  13  623
1477469532.852:  -1335 103  13  623
1477469532.857:  -1343 103  13  623
1477469532.862:  -1350 103  13  623
1477469532.863:  -1357 103  13  623
1477469532.863:  -1363 103  13  623
1477469532.863:  -1363 103  13  623
1477469532.864:  -1359 103  13  623
1477469532.866:  -1353 103  13  623
1477469532.870:  -1342 103  13  623
1477469532.870:  -1323 103  13  623
1477469532.880:  -1299 103  13  623
1477469532.880:  -1287 103  13  623
1477469532.880:  -1295 103  13  623
1477469532.881:  -1309 103  13  623
1477469532.881:  -1305 103  13  623
1477469532.884:  -1274 103  13  623
1477469532.885:  -1239 103  13  623
1477469532.886:  -1229 103  13  623
1477469532.887:  -1248 103  13  623
1477469532.889:  -1268 103  13  623
1477469532.899:  -1267 103  13  623
1477469532.899:  -1248 103  13  623
1477469532.899:  -1235 103  13  623
1477469532.899:  -1240 103  13  623
1477469532.899:  -1254 103  13  623
1477469532.901:  -1258 103  13  623
1477469532.902:  -1247 103  13  623
1477469532.905:  -1235 103  13  623
1477469532.907:  -1228 103  13  623
1477469532.914:  -1221 103  13  623
1477469532.919:  -1208 103  13  623
1477469532.919:  -1194 103  13  623
1477469532.919:  -1190 103  13  623
1477469532.919:  -1198 103  13  623
1477469532.922:  -1205 103  13  623
1477469532.922:  -1195 103  13  623
1477469532.925:  -1166 103  13  623
1477469532.926:  -1130 103  13  623
1477469532.927:  -1099 103  13  623
1477469532.929:  -1077 103  13  623
1477469532.937:  -1063 103  13  623
1477469532.938:  -1051 103  13  623
1477469532.938:  -1035 103  13  623
1477469532.939:  -1011 103  13  623
1477469532.940:   -988 103  13  623
1477469532.941:   -979 103  13  623
1477469532.942:   -986 103  13  623
1477469532.943:   -994 103  13  623
1477469532.946:   -985 103  13  623
1477469532.948:   -963 103  13  623
1477469532.957:   -950 103  13  623
1477469532.958:   -958 103  13  623
1477469532.958:   -968 103  13  623
1477469532.958:   -953 103  13  623
1477469532.958:   -909 103  13  623
1477469532.960:   -860 103  13  623
1477469532.962:   -832 103  13  623
1477469532.964:   -821 103  13  623
1477469532.966:   -806 103  13  623
1477469532.967:   -782 103  13  623
1477469532.972:   -769 103  13  623
1477469532.972:   -792 103  13  623
1477469532.979:   -845 103  13  623
1477469532.979:   -903 103  13  623
1477469532.979:   -947 103  13  623
1477469532.980:   -983 103  13  623
1477469532.981:  -1028 103  13  623
1477469532.985:  -1080 103  13  623
1477469532.986:  -1116 103  13  623
1477469532.987:  -1122 103  13  623
1477469532.990:  -1109 103  13  623
1477469532.991:  -1101 103  13  623
1477469532.999:  -1105 103  13  623
1477469532.999:  -1108 103  13  623
1477469533.000:  -1088 103  13  623
1477469533.000:  -1045 103  13  623
1477469533.003:   -999 103  13  623
1477469533.005:   -967 103  13  623
1477469533.005:   -949 103  13  623
1477469533.007:   -932 103  13  623
1477469533.017:   -908 103  13  623
1477469533.017:   -880 103  13  623
1477469533.017:   -859 103  13  623
1477469533.017:   -844 103  13  623
1477469533.017:   -831 103  13  623
1477469533.019:   -813 103  13  623
1477469533.021:   -789 103  13  623
1477469533.022:   -758 103  13  623
1477469533.027:   -716 103  13  623
1477469533.027:   -669 103  13  623
1477469533.036:   -623 103  13  623
1477469533.036:   -579 103  13  623
1477469533.036:   -536 103  13  623
1477469533.036:   -495 103  13  623
1477469533.036:   -466 103  13  623
1477469533.040:   -461 103  13  623
1477469533.041:   -469 103  13  623
1477469533.042:   -448 103  13  623
1477469533.044:   -358 103  13  623
1477469533.046:   -199 103  13  623
1477469533.056:     -6 103  13  623
1477469533.097:    216 103  13  623
1477469533.109:    510 103  13  623
1477469533.109:    907 103  13  623
1477469533.109:   1350 103  13  623
1477469533.109:   1696 103  13  623
1477469533.109:   1849 103  13  623
1477469533.109:   1852 103  13  623
1477469533.109:   1814 103  13  623
1477469533.110:   1733 103  13  623
1477469533.110:   1447 103  13  623
1477469533.110:    810 103  13  623
1477469533.110:    -96 103  13  623
1477469533.110:   -992 103  13  623
1477469533.110:  -1678 103  13  623
1477469533.110:  -2238 103  13  623
1477469533.110:  -2914 103  13  623
1477469533.111:  -3791 103  13  623
1477469533.111:  -4650 103  13  623
1477469533.111:  -5170 103  13  623
1477469533.111:  -5246 103  13  623
1477469533.112:  -5052 103  13  623
1477469533.112:  -4823 103  13  623
1477469533.112:  -4607 103  13  623
1477469533.112:  -4268 103  13  623
1477469533.112:  -3686 103  13  623
1477469533.113:  -2897 103  13  623
1477469533.113:  -2071 103  13  623
1477469533.113:  -1355 103  13  623
1477469533.113:   -798 103  13  623
1477469533.113:   -374 103  13  623
1477469533.114:    -53 103  13  623
1477469533.114:    167 103  13  623
1477469533.114:    278 103  13  623
1477469533.115:    296 103  13  623
1477469533.116:    260 103  13  623
1477469533.119:    222 103  13  623
1477469533.122:    213 103  13  623
1477469533.133:    236 103  13  623
1477469533.134:    278 103  13  623
1477469533.134:    338 103  13  623
1477469533.134:    419 103  13  623
1477469533.134:    515 103  13  623
1477469533.134:    595 103  13  623
1477469533.135:    630 103  13  623
1477469533.136:    616 103  13  623
1477469533.142:    581 103  13  623
1477469533.142:    553 103  13  623
1477469533.155:    541 103  13  623
1477469533.155:    541 103  13  623
1477469533.155:    553 103  13  623
1477469533.155:    581 103  13  623
1477469533.156:    613 103  13  623
1477469533.156:    621 103  13  623
1477469533.157:    588 103  13  623
1477469533.157:    525 103  13  623
1477469533.157:    465 103  13  623
1477469533.163:    434 103  13  623
1477469533.174:    427 103  13  623
1477469533.174:    425 103  13  623
1477469533.174:    420 103  13  623
1477469533.174:    420 103  13  623
1477469533.204:    434 103  13  623
1477469533.204:    455 103  13  623
1477469533.212:    467 103  13  623
1477469533.213:    457 103  13  623
1477469533.213:    432 103  13  623
1477469533.213:    412 103  13  623
1477469533.214:    410 103  13  623
1477469533.214:    426 103  13  623
1477469533.215:    446 103  13  623
1477469533.215:    454 103  13  623
1477469533.215:    449 103  13  623
1477469533.215:    441 103  13  623
1477469533.216:    442 103  13  623
1477469533.216:    452 103  13  623
1477469533.216:    458 103  13  623
1477469533.216:    454 103  13  623
1477469533.216:    452 103  13  623
1477469533.216:    471 103  13  623
1477469533.216:    512 103  13  623
1477469533.217:    545 103  13  623
1477469533.217:    543 103  13  623
1477469533.217:    512 103  13  623
1477469533.217:    488 103  13  623
1477469533.217:    489 103  13  623
1477469533.219:    496 103  13  623
1477469533.220:    473 103  13  623
1477469533.231:    428 103  13  623
1477469533.231:    405 103  13  623
1477469533.232:    438 103  13  623
1477469533.232:    510 103  13  623
1477469533.232:    573 103  13  623
1477469533.232:    601 103  13  623
1477469533.234:    612 103  13  623
1477469533.235:    639 103  13  623
1477469533.237:    691 103  13  623
1477469533.239:    750 103  13  623
1477469533.241:    791 103  13  623
1477469533.245:    811 103  13  623
1477469533.251:    818 103  13  623
1477469533.251:    824 103  13  623
1477469533.252:    836 103  13  623
1477469533.252:    858 103  13  623
1477469533.252:    886 103  13  623
1477469533.255:    920 103  13  623
1477469533.259:    952 103  13  623
1477469533.259:    979 103  13  623
1477469533.270:   1004 103  13  623
1477469533.270:   1035 103  13  623
1477469533.270:   1074 103  13  623
1477469533.271:   1118 103  13  623
1477469533.271:   1156 103  13  623
1477469533.273:   1179 103  13  623
1477469533.273:   1187 103  13  623
1477469533.275:   1191 103  13  623
1477469533.276:   1201 103  13  623
1477469533.277:   1220 103  13  623
1477469533.280:   1241 103  13  623
1477469533.282:   1259 103  13  623
1477469533.289:   1276 103  13  623
1477469533.289:   1293 103  13  623
1477469533.289:   1306 103  13  623
1477469533.290:   1313 103  13  623
1477469533.291:   1322 103  13  623
1477469533.294:   1340 103  13  623
1477469533.296:   1366 103  13  623
1477469533.300:   1384 103  13  623
1477469533.301:   1384 103  13  623
1477469533.302:   1374 103  13  623
1477469533.313:   1374 103  13  623
1477469533.313:   1391 103  13  623
1477469533.313:   1411 103  13  623
1477469533.313:   1417 103  13  623
1477469533.314:   1408 103  13  623
1477469533.315:   1393 103  13  623
1477469533.316:   1381 103  13  623
1477469533.317:   1370 103  13  623
1477469533.318:   1354 103  13  623
1477469533.321:   1334 103  13  623
1477469533.330:   1312 103  13  623
1477469533.331:   1284 103  13  623
1477469533.331:   1238 103  13  623
1477469533.331:   1169 103  13  623
1477469533.332:   1088 103  13  623
1477469533.332:   1015 103  13  623
1477469533.335:    954 103  13  623
1477469533.337:    897 103  13  623
1477469533.347:    835 103  13  623
1477469533.348:    773 103  13  623
1477469533.348:    723 103  13  623
1477469533.348:    689 103  13  623
1477469533.349:    659 103  13  623
1477469533.349:    617 103  13  623
1477469533.351:    561 103  13  623
1477469533.355:    498 103  13  623
1477469533.366:    438 103  13  623
1477469533.366:    383 103  13  623
1477469533.366:    329 103  13  623
1477469533.366:    274 103  13  623
1477469533.366:    219 103  13  623
1477469533.366:    169 103  13  623
1477469533.369:    132 103  13  623
1477469533.369:    107 103  13  623
1477469533.371:     82 103  13  623
1477469533.372:     46 103  13  623
1477469533.373:     -6 103  13  623
1477469533.376:    -59 103  13  623
1477469533.383:    -98 103  13  623
1477469533.384:   -118 103  13  624
1477469533.384:   -128 103  13  624
1477469533.385:   -139 103  13  624
1477469533.386:   -154 103  13  624
1477469533.387:   -171 103  13  624
1477469533.393:   -192 103  13  624
1477469533.393:   -214 103  13  624
1477469533.402:   -230 103  13  624
1477469533.402:   -231 103  13  624
1477469533.402:   -220 103  13  624
1477469533.402:   -215 103  13  624
1477469533.403:   -224 103  13  624
1477469533.404:   -237 103  13  624
1477469533.406:   -239 103  13  624
1477469533.410:   -224 103  13  624
1477469533.421:   -205 103  13  624
1477469533.421:   -200 103  13  624
1477469533.422:   -210 103  13  624
1477469533.422:   -223 103  13  624
1477469533.422:   -230 103  13  624
1477469533.422:   -229 103  13  624
1477469533.422:   -220 103  13  624
1477469533.425:   -203 103  13  624
1477469533.426:   -181 103  13  624
1477469533.429:   -165 103  13  624
1477469533.429:   -158 103  13  624
1477469533.431:   -155 103  13  624
1477469533.433:   -145 103  13  624
1477469533.435:   -128 103  13  624
1477469533.437:   -116 103  13  624
1477469533.438:   -114 103  13  624
1477469533.447:   -116 103  13  624
1477469533.447:   -108 103  13  624
1477469533.448:    -91 103  13  624
1477469533.448:    -75 103  13  624
1477469533.448:    -65 103  13  624
1477469533.451:    -58 103  13  624
1477469533.453:    -50 103  13  624
1477469533.457:    -42 103  13  624
1477469533.467:    -40 103  13  624
1477469533.467:    -39 103  13  624
1477469533.467:    -31 103  13  624
1477469533.468:    -12 103  13  624
1477469533.468:      8 103  13  624
1477469533.468:     19 103  13  624
1477469533.471:     20 103  13  624
1477469533.471:     17 103  13  624
1477469533.473:     17 103  13  624
1477469533.474:     17 103  13  624
1477469533.477:     13 103  13  624
1477469533.479:      6 103  13  624
1477469533.489:      0 103  13  624
1477469533.490:     -1 103  13  624
1477469533.490:      5 103  13  624
1477469533.491:     18 103  13  624
1477469533.491:     35 103  13  624
1477469533.494:     47 103  13  624
1477469533.494:     49 103  13  624
1477469533.495:     38 103  13  624
1477469533.498:     19 103  13  624
1477469533.498:      4 103  13  624
1477469533.507:      1 103  13  624
1477469533.507:      5 103  13  624
1477469533.508:      4 103  13  624
1477469533.508:    -13 103  13  624
1477469533.508:    -38 103  13  624
1477469533.512:    -53 103  13  624
1477469533.513:    -51 103  13  624
1477469533.514:    -46 103  13  624
1477469533.515:    -58 103  13  624
1477469533.521:    -83 103  13  624
1477469533.535:    -93 103  13  624
1477469533.535:    -71 103  13  624
1477469533.535:    -32 103  13  624
1477469533.535:    -11 103  13  624
1477469533.536:    -24 103  13  624
1477469533.536:    -55 103  13  624
1477469533.536:    -74 103  13  624
1477469533.536:    -73 103  13  624
1477469533.536:    -71 103  13  624
1477469533.539:    -88 103  13  624
1477469533.540:   -122 103  13  624
1477469533.542:   -148 103  13  624
1477469533.543:   -146 103  13  624
1477469533.546:   -107 103  13  624
1477469533.557:    -47 103  13  624
1477469533.557:     10 103  13  624
1477469533.557:     49 103  13  624
1477469533.557:     73 103  13  624
1477469533.558:     99 103  13  624
1477469533.558:    142 103  13  624
1477469533.559:    197 103  13  624
1477469533.560:    251 103  13  624
1477469533.567:    293 103  13  624
1477469533.567:    322 103  13  624
1477469533.568:    337 103  13  624
1477469533.571:    341 103  13  624
1477469533.574:    339 103  13  624
1477469533.574:    342 103  13  624
1477469533.590:    356 103  13  624
1477469533.592:    369 103  13  624
1477469533.592:    364 103  13  624
1477469533.595:    341 103  13  624
1477469533.597:    326 103  13  624
1477469533.597:    341 103  13  624
1477469533.600:    378 103  13  624
1477469533.600:    402 103  13  624
1477469533.611:    392 103  13  624
1477469533.611:    362 103  13  624
1477469533.612:    347 103  13  624
1477469533.613:    361 103  13  624
1477469533.613:    384 103  13  624
1477469533.613:    382 103  13  624
1477469533.614:    342 103  13  624
1477469533.614:    286 103  13  624
1477469533.614:    245 103  13  624
1477469533.614:    230 103  13  624
1477469533.615:    228 103  13  624
1477469533.615:    212 103  13  624
1477469533.616:    168 103  13  624
1477469533.616:    109 103  13  624
1477469533.622:     61 103  13  624
1477469533.622:     48 103  13  624
1477469533.630:     68 103  13  624
1477469533.630:     96 103  13  624
1477469533.630:    111 103  13  624
1477469533.631:    106 103  13  624
1477469533.632:     96 103  13  624
1477469533.635:     95 103  13  624
1477469533.636:    109 103  13  624
1477469533.637:    128 103  13  624
1477469533.647:    145 103  13  624
1477469533.648:    158 103  13  624
1477469533.649:    174 103  13  624
1477469533.649:    191 103  13  624
1477469533.650:    204 103  13  624
1477469533.651:    208 103  13  624
1477469533.651:    209 103  13  624
1477469533.652:    217 103  13  624
1477469533.653:    232 103  13  624
1477469533.658:    246 103  13  624
1477469533.659:    245 103  13  624
1477469533.665:    235 103  13  624
1477469533.669:    240 103  13  624
1477469533.669:    280 103  13  624
1477469533.670:    342 103  13  624
1477469533.670:    395 103  13  624
1477469533.673:    414 103  13  624
1477469533.673:    404 103  13  624
1477469533.677:    393 103  13  624
1477469533.677:    409 103  13  624
1477469533.678:    475 103  13  624
1477469533.678:    596 103  13  624
1477469533.680:    777 103  13  624
1477469533.686:   1033 103  13  624
1477469533.766:   1371 103  13  624
1477469533.766:   1765 103  13  624
1477469533.766:   2132 103  13  624
1477469533.766:   2380 103  13  624
1477469533.766:   2484 103  13  624
1477469533.766:   2507 103  13  624
1477469533.767:   2496 103  13  624
1477469533.767:   2379 103  13  624
1477469533.767:   1998 103  13  624
1477469533.768:   1306 103  13  624
1477469533.768:    468 103  13  624
1477469533.768:   -272 103  13  624
1477469533.768:   -856 103  13  624
1477469533.769:  -1473 103  13  624
1477469533.769:  -2317 103  13  624
1477469533.769:  -3312 103  13  624
1477469533.769:  -4134 103  13  624
1477469533.769:  -4527 103  13  624
1477469533.769:  -4531 103  13  624
1477469533.769:  -4383 103  13  624
1477469533.770:  -4225 103  13  624
1477469533.770:  -3978 103  13  624
1477469533.770:  -3498 103  13  624
1477469533.770:  -2770 103  13  624
1477469533.770:  -1945 103  13  624
1477469533.773:  -1194 103  13  624
1477469533.773:   -586 103  13  624
1477469533.774:   -109 103  13  624
1477469533.774:    249 103  13  624
1477469533.774:    478 103  13  624
1477469533.775:    586 103  13  624
1477469533.775:    614 103  13  624
1477469533.775:    608 103  13  624
1477469533.775:    592 103  13  624
1477469533.775:    569 103  13  624
1477469533.775:    548 103  13  624
1477469533.776:    549 103  13  624
1477469533.776:    591 103  13  624
1477469533.776:    671 103  13  624
1477469533.776:    764 103  13  624
1477469533.776:    837 103  13  624
1477469533.776:    867 103  13  624
1477469533.776:    855 103  13  624
1477469533.777:    822 103  13  624
1477469533.777:    796 103  13  624
1477469533.777:    791 103  13  624
1477469533.777:    807 103  13  624
1477469533.777:    832 103  13  624
1477469533.779:    860 103  13  624
1477469533.781:    892 103  13  624
1477469533.793:    922 103  13  624
1477469533.793:    931 103  13  624
1477469533.793:    908 103  13  624
1477469533.793:    859 103  13  624
1477469533.793:    809 103  13  624
1477469533.798:    782 103  13  624
1477469533.799:    780 103  13  624
1477469533.800:    793 103  13  624
1477469533.800:    810 103  13  624
1477469533.801:    835 103  13  624
1477469533.803:    867 103  13  624
1477469533.804:    895 103  13  624
1477469533.806:    905 103  13  624
1477469533.808:    895 103  13  624
1477469533.814:    877 103  13  624
1477469533.815:    863 103  13  624
1477469533.815:    853 103  13  624
1477469533.816:    842 103  13  624
1477469533.817:    831 103  13  624
1477469533.823:    830 103  13  624
1477469533.834:    848 103  13  624
1477469533.834:    882 103  13  624
1477469533.835:    915 103  13  624
1477469533.835:    936 103  13  624
1477469533.835:    945 103  13  624
1477469533.836:    952 103  13  624
1477469533.836:    965 103  13  624
1477469533.836:    980 103  13  624
1477469533.840:    983 103  13  624
1477469533.840:    972 103  13  624
1477469533.845:    958 103  13  624
1477469533.846:    958 103  13  624
1477469533.861:    974 103  13  624
1477469533.862:    993 103  13  624
1477469533.862:    997 103  13  624
1477469533.862:    989 103  13  624
1477469533.863:    980 103  13  624
1477469533.863:    981 103  13  624
1477469533.863:    989 103  13  624
1477469533.883:    998 103  13  624
1477469533.884:   1005 103  13  624
1477469533.887:   1016 103  13  624
1477469533.890:   1032 103  13  624
1477469533.890:   1050 103  13  624
1477469533.890:   1068 103  13  624
1477469533.890:   1084 103  13  624
1477469533.891:   1096 103  13  624
1477469533.891:   1100 103  13  624
1477469533.891:   1097 103  13  624
1477469533.892:   1098 103  13  624
1477469533.892:   1112 103  13  624
1477469533.892:   1135 103  13  624
1477469533.892:   1154 103  13  624
1477469533.892:   1158 103  13  624
1477469533.893:   1155 103  13  624
1477469533.897:   1160 103  13  624
1477469533.897:   1176 103  13  624
1477469533.899:   1196 103  13  624
1477469533.904:   1211 103  13  624
1477469533.904:   1223 103  13  624
1477469533.904:   1240 103  13  624
1477469533.905:   1268 103  13  624
1477469533.923:   1303 103  13  624
1477469533.923:   1345 103  13  624
1477469533.923:   1389 103  13  624
1477469533.923:   1431 103  13  624
1477469533.923:   1462 103  13  624
1477469533.924:   1481 103  13  624
1477469533.924:   1494 103  13  624
1477469533.924:   1510 103  13  624
1477469533.924:   1534 103  13  624
1477469533.925:   1562 103  13  624
1477469533.925:   1585 103  13  624
1477469533.931:   1600 103  13  624
1477469533.931:   1604 103  13  624
1477469533.936:   1594 103  13  624
1477469533.948:   1578 103  13  624
1477469533.948:   1571 103  13  624
1477469533.948:   1578 103  13  624
1477469533.949:   1586 103  13  624
1477469533.949:   1573 103  13  624
1477469533.949:   1533 103  13  624
1477469533.949:   1490 103  13  624
1477469533.949:   1472 103  13  624
1477469533.950:   1479 103  13  624
1477469533.950:   1478 103  13  624
1477469533.952:   1444 103  13  624
1477469533.953:   1386 103  13  624
1477469533.954:   1333 103  13  624
1477469533.959:   1305 103  13  624
1477469533.965:   1284 103  13  624
1477469533.966:   1245 103  13  624
1477469533.967:   1177 103  13  624
1477469533.967:   1097 103  13  624
1477469533.969:   1021 103  13  624
1477469533.969:    956 103  13  624
1477469533.971:    894 103  13  624
1477469533.973:    828 103  13  624
1477469533.975:    759 103  13  624
1477469533.977:    688 103  13  624
1477469534.000:    624 103  13  624
1477469534.000:    573 103  13  624
1477469534.000:    539 103  13  624
1477469534.000:    515 103  13  624
1477469534.000:    486 103  13  624
1477469534.000:    440 103  13  624
1477469534.001:    380 103  13  624
1477469534.001:    317 103  13  624
1477469534.001:    265 103  13  624
1477469534.001:    225 103  13  624
1477469534.008:    190 103  13  624
1477469534.009:    147 103  13  624
1477469534.009:     96 103  13  624
1477469534.010:     48 103  13  624
1477469534.012:     21 103  13  624
1477469534.013:     16 103  13  624
1477469534.037:     19 103  13  652
1477469534.037:      6 103  13  652
1477469534.038:    -25 103  13  652
1477469534.039:    -60 103  13  652
1477469534.039:    -78 103  13  652
1477469534.039:    -75 103  13  652
1477469534.040:    -68 103  13  652
1477469534.041:    -69 103  13  652
1477469534.041:    -78 103  13  652
1477469534.041:    -84 103  13  652
1477469534.042:    -83 103  13  652
1477469534.042:    -78 103  13  652
1477469534.042:    -73 103  13  652
1477469534.042:    -64 103  13  652
1477469534.043:    -43 103  13  652
1477469534.043:     -7 103  13  652
1477469534.043:     41 103  13  652
1477469534.046:     93 103  13  652
1477469534.046:    146 103  13  652
1477469534.047:    200 103  13  652
1477469534.049:    256 103  13  652
1477469534.051:    318 103  13  652
1477469534.073:    393 103  13  652
1477469534.073:    496 103  13  652
1477469534.073:    636 103  13  652
1477469534.074:    802 103  13  652
1477469534.074:    972 103  13  652
1477469534.075:   1136 103  13  652
1477469534.075:   1315 103  13  652
1477469534.075:   1540 103  13  652
1477469534.075:   1809 103  13  652
1477469534.075:   2073 103  13  652
1477469534.075:   2282 103  13  652
1477469534.078:   2443 103  13  652
1477469534.078:   2613 103  13  652
1477469534.080:   2845 103  13  652
1477469534.081:   3131 103  13  652
1477469534.083:   3419 103  13  652
1477469534.107:   3664 103  13  652
1477469534.107:   3872 103  13  652
1477469534.107:   4081 103  13  652
1477469534.108:   4319 103  13  652
1477469534.108:   4590 103  13  652
1477469534.108:   4884 103  13  652
1477469534.109:   5186 103  13  652
1477469534.109:   5480 103  13  652
1477469534.110:   5766 103  13  652
1477469534.110:   6060 103  13  652
1477469534.110:   6375 103  13  652
1477469534.110:   6695 103  13  652
1477469534.111:   6962 103  13  652
1477469534.111:   7120 103  13  652
1477469534.112:   7158 103  13  652
1477469534.113:   7099 103  13  652
1477469534.119:   6949 103  13  652
1477469534.119:   6679 103  13  652
1477469534.128:   6264 103  13  652
1477469534.129:   5739 103  13  652
1477469534.129:   5182 103  13  652
1477469534.130:   4632 103  13  652
1477469534.130:   4047 103  13  652
1477469534.131:   3349 103  13  652
1477469534.132:   2527 103  13  652
1477469534.133:   1665 103  13  652
1477469534.138:    877 103  13  652
1477469534.138:    210 103  13  652
1477469534.150:   -375 103  13  652
1477469534.150:   -944 103  13  652
1477469534.151:  -1505 103  13  652
1477469534.151:  -1998 103  13  652
1477469534.151:  -2347 103  13  652
1477469534.151:  -2532 103  13  652
1477469534.152:  -2603 103  13  652
1477469534.153:  -2638 103  13  652
1477469534.156:  -2684 103  13  652
1477469534.161:  -2736 103  13  652
1477469534.176:  -2770 103  13  652
1477469534.176:  -2784 103  13  652
1477469534.176:  -2799 103  13  652
1477469534.176:  -2833 103  13  652
1477469534.176:  -2878 103  13  652
1477469534.177:  -2913 103  13  652
1477469534.206:  -2936 103  13  652
1477469534.206:  -2970 103  13  652
1477469534.206:  -3024 103  13  652
1477469534.207:  -3069 103  13  652
1477469534.207:  -3064 103  13  652
1477469534.208:  -3011 103  13  652
1477469534.208:  -2959 103  13  652
1477469534.208:  -2953 103  13  652
1477469534.209:  -2979 103  13  652
1477469534.210:  -2983 103  13  652
1477469534.226:  -2929 103  13  652
1477469534.227:  -2840 103  13  652
1477469534.227:  -2756 103  13  652
1477469534.227:  -2684 103  13  652
1477469534.227:  -2592 103  13  652
1477469534.227:  -2459 103  13  652
1477469534.227:  -2316 103  13  652
1477469534.227:  -2211 103  13  652
1477469534.228:  -2163 103  13  652
1477469534.228:  -2139 103  13  652
1477469534.229:  -2109 103  13  652
1477469534.229:  -2077 103  13  652
1477469534.229:  -2066 103  13  652
1477469534.229:  -2077 103  13  652
1477469534.229:  -2084 103  13  652
1477469534.229:  -2067 103  13  652
1477469534.230:  -2047 103  13  652
1477469534.230:  -2058 103  13  652
1477469534.231:  -2097 103  13  652
1477469534.231:  -2121 103  13  652
1477469534.232:  -2096 103  13  652
1477469534.233:  -2040 103  13  652
1477469534.235:  -2008 103  13  652
1477469534.236:  -2020 103  13  652
1477469534.247:  -2046 103  13  652
1477469534.247:  -2037 103  13  652
1477469534.247:  -1990 103  13  652
1477469534.247:  -1944 103  13  652
1477469534.249:  -1936 103  13  652
1477469534.249:  -1964 103  13  652
1477469534.250:  -2004 103  13  652
1477469534.253:  -2037 103  13  652
1477469534.257:  -2060 103  13  652
1477469534.257:  -2075 103  13  652
1477469534.259:  -2080 103  13  652
1477469534.260:  -2075 103  13  652
1477469534.261:  -2072 103  13  652
1477469534.264:  -2078 103  13  652
1477469534.266:  -2084 103  13  652
1477469534.270:  -2073 103  13  652
1477469534.281:  -2048 103  13  652
1477469534.281:  -2035 103  13  652
1477469534.282:  -2061 103  13  652
1477469534.282:  -2117 103  13  652
1477469534.282:  -2167 103  13  652
1477469534.283:  -2179 103  13  652
1477469534.284:  -2160 103  13  652
1477469534.285:  -2143 103  13  652
1477469534.287:  -2149 103  13  652
1477469534.289:  -2172 103  13  652
1477469534.290:  -2187 103  13  652
1477469534.298:  -2182 103  13  652
1477469534.301:  -2165 103  13  652
1477469534.301:  -2154 103  13  652
1477469534.302:  -2162 103  13  652
1477469534.305:  -2185 103  13  652
1477469534.306:  -2204 103  13  652
1477469534.306:  -2203 103  13  652
1477469534.307:  -2181 103  13  652
1477469534.307:  -2155 103  13  652
1477469534.312:  -2146 103  13  652
1477469534.313:  -2153 103  13  652
1477469534.314:  -2156 103  13  652
1477469534.315:  -2135 103  13  652
1477469534.316:  -2093 103  13  652
1477469534.318:  -2050 103  13  652
1477469534.329:  -2015 103  13  652
1477469534.329:  -1974 103  13  652
1477469534.330:  -1912 103  13  652
1477469534.330:  -1832 103  13  652
1477469534.330:  -1754 103  13  652
1477469534.330:  -1691 103  13  652
1477469534.333:  -1629 103  13  652
1477469534.335:  -1549 103  13  652
1477469534.338:  -1447 103  13  652
1477469534.396:  -1337 103  13  652
1477469534.397:  -1229 103  13  652
1477469534.397:  -1123 103  13  652
1477469534.397:  -1013 103  13  652
1477469534.397:   -896 103  13  652
1477469534.397:   -776 103  13  652
1477469534.397:   -653 103  13  652
1477469534.398:   -530 103  13  652
1477469534.398:   -406 103  13  652
1477469534.398:   -292 103  13  652
1477469534.398:   -190 103  13  652
1477469534.398:    -91 103  13  652
1477469534.399:     19 103  13  652
1477469534.399:    148 103  13  652
1477469534.399:    288 103  13  652
1477469534.399:    425 103  13  652
1477469534.399:    546 103  13  652
1477469534.399:    651 103  13  652
1477469534.399:    750 103  13  652
1477469534.400:    854 103  13  652
1477469534.400:    966 103  13  652
1477469534.400:   1074 103  13  652
1477469534.400:   1161 103  13  652
1477469534.400:   1220 103  13  652
1477469534.401:   1263 103  13  652
1477469534.401:   1312 103  13  652
1477469534.401:   1373 103  13  652
1477469534.401:   1433 103  13  652
1477469534.401:   1472 103  13  652
1477469534.402:   1485 103  13  652
1477469534.402:   1489 103  13  652
1477469534.402:   1503 103  13  652
1477469534.402:   1530 103  13  652
1477469534.402:   1553 103  13  652
1477469534.405:   1562 103  13  652
1477469534.407:   1558 103  13  652
1477469534.408:   1555 103  13  652
1477469534.422:   1555 103  13  652
1477469534.423:   1546 103  13  652
1477469534.423:   1516 103  13  652
1477469534.423:   1473 103  13  652
1477469534.423:   1432 103  13  652
1477469534.423:   1405 103  13  652
1477469534.424:   1383 103  13  652
1477469534.426:   1357 103  13  652
1477469534.427:   1325 103  13  652
1477469534.430:   1294 103  13  652
1477469534.430:   1266 103  13  652
1477469534.432:   1235 103  13  652
1477469534.433:   1194 103  13  652
1477469534.440:   1151 103  13  652
1477469534.464:   1117 103  13  652
1477469534.464:   1091 103  13  652
1477469534.465:   1059 103  13  652
1477469534.466:   1013 103  13  652
1477469534.467:    963 103  13  652
1477469534.467:    931 103  13  652
1477469534.468:    919 103  13  652
1477469534.468:    904 103  13  652
1477469534.468:    866 103  13  652
1477469534.468:    813 103  13  652
1477469534.468:    773 103  13  652
1477469534.469:    767 103  13  652
1477469534.469:    781 103  13  652
1477469534.469:    786 103  13  652
1477469534.470:    769 103  13  652
1477469534.470:    742 103  13  652
1477469534.471:    725 103  13  652
1477469534.471:    723 103  13  652
1477469534.474:    723 103  13  652
1477469534.476:    709 103  13  652
1477469534.487:    678 103  13  652
1477469534.487:    642 103  13  652
1477469534.487:    615 103  13  652
1477469534.488:    607 103  13  652
1477469534.488:    612 103  13  652
1477469534.488:    613 103  13  652
1477469534.492:    596 103  13  652
1477469534.493:    562 103  13  652
1477469534.496:    530 103  13  652
1477469534.497:    518 103  13  652
1477469534.498:    526 103  13  652
1477469534.500:    532 103  13  652
1477469534.504:    521 103  13  652
1477469534.504:    499 103  13  652
1477469534.517:    484 103  13  652
1477469534.517:    486 103  13  652
1477469534.517:    494 103  13  652
1477469534.517:    492 103  13  652
1477469534.517:    476 103  13  652
1477469534.518:    456 103  13  652
1477469534.518:    445 103  13  652
1477469534.519:    438 103  13  652
1477469534.521:    425 103  13  652
1477469534.523:    409 103  13  652
1477469534.527:    398 103  13  652
1477469534.527:    402 103  13  652
1477469534.530:    413 103  13  652
1477469534.531:    413 103  13  652
1477469534.537:    398 103  13  652
1477469534.537:    381 103  13  652
1477469534.538:    378 103  13  652
1477469534.538:    388 103  13  652
1477469534.540:    396 103  13  652
1477469534.545:    391 103  13  652
1477469534.560:    385 103  13  652
1477469534.562:    394 103  13  652
1477469534.562:    414 103  13  652
1477469534.562:    424 103  13  652
1477469534.562:    407 103  13  652
1477469534.563:    380 103  13  652
1477469534.564:    369 103  13  652
1477469534.564:    385 103  13  652
1477469534.564:    413 103  13  652
1477469534.565:    429 103  13  652
1477469534.565:    428 103  13  652
1477469534.566:    425 103  13  652
1477469534.567:    432 103  13  652
1477469534.570:    443 103  13  652
1477469534.572:    446 103  13  652
1477469534.577:    436 103  13  652
1477469534.582:    418 103  13  652
1477469534.582:    394 103  13  652
1477469534.583:    361 103  13  652
1477469534.586:    325 103  13  652
1477469534.586:    302 103  13  652
1477469534.588:    305 103  13  652
1477469534.591:    327 103  13  652
1477469534.592:    343 103  13  652
1477469534.594:    334 103  13  652
1477469534.596:    305 103  13  652
1477469534.597:    280 103  13  652
1477469534.597:    281 103  13  652
1477469534.608:    308 103  13  652
1477469534.609:    337 103  13  652
1477469534.630:    344 103  13  652
1477469534.630:    324 103  13  652
1477469534.630:    293 103  13  652
1477469534.630:    272 103  13  652
1477469534.631:    265 103  13  652
1477469534.631:    261 103  13  652
1477469534.631:    246 103  13  652
1477469534.631:    224 103  13  652
1477469534.632:    208 103  13  652
1477469534.632:    209 103  13  652
1477469534.632:    218 103  13  652
1477469534.632:    222 103  13  652
1477469534.632:    211 103  13  652
1477469534.632:    192 103  13  652
1477469534.633:    177 103  13  652
1477469534.633:    165 103  13  652
1477469534.635:    146 103  13  652
1477469534.636:    115 103  13  652
1477469534.640:     79 103  13  652
1477469534.643:     56 103  13  652
1477469534.655:     64  88  11  627
1477469534.656:    100  88  11  627
1477469534.656:    139  88  11  627
1477469534.657:    159  88  11  627
1477469534.657:    152  88  11  627
1477469534.657:    136  88  11  627
1477469534.658:    127  88  11  627
1477469534.662:    128  88  11  627
1477469534.663:    129  88  11  627
1477469534.665:    124  88  11  627
1477469534.666:    119  88  11  627
1477469534.668:    120  88  11  627
1477469534.671:    121  88  11  627
1477469534.671:    115  88  11  627
1477469534.680:    105  88  11  627
1477469534.680:    104  88  11  627
1477469534.681:    119  88  11  627
1477469534.681:    138  88  11  627
1477469534.682:    141  88  11  627
1477469534.683:    120  88  11  627
1477469534.683:     91  88  11  627
1477469534.687:     76  88  11  627
1477469534.687:     81  88  11  627
1477469534.688:     97  88  11  627
1477469534.691:    103  88  11  627
1477469534.692:     91  88  11  627
1477469534.712:     67  88  11  627
1477469534.712:     47  88  11  627
1477469534.712:     38  88  11  627
1477469534.713:     38  88  11  627
1477469534.714:     38  88  11  627
1477469534.714:     32  88  11  627
1477469534.714:     22  88  11  627
1477469534.714:      9  88  11  627
1477469534.714:     -9  88  11  627
1477469534.716:    -26  88  11  627
1477469534.716:    -37  88  11  627
1477469534.717:    -35  88  11  627
1477469534.719:    -22  88  11  627
1477469534.720:    -13  88  11  627
1477469534.722:    -15  88  11  627
1477469534.723:    -20  88  11  627
1477469534.735:    -17  88  11  627
1477469534.735:     -3  88  11  627
1477469534.735:     12  88  11  627
1477469534.735:     15  88  11  627
1477469534.736:      1  88  11  627
1477469534.736:    -18  88  11  627
1477469534.736:    -25  88  11  627
1477469534.739:    -14  88  11  627
1477469534.741:     10  88  11  627
1477469534.742:     37  88  11  627
1477469534.747:     57  88  11  627
1477469534.747:     70  88  11  627
1477469534.749:     84  88  11  627
1477469534.750:    105  88  11  627
1477469534.752:    125  88  11  627
1477469534.755:    129  88  11  627
1477469534.756:    109  88  11  627
1477469534.763:     74  88  11  627
1477469534.764:     48  88  11  627
1477469534.764:     49  88  11  627
1477469534.765:     68  88  11  627
1477469534.769:     78  88  11  627
1477469534.770:     57  88  11  627
1477469534.771:     14  88  11  627
1477469534.772:    -18  88  11  627
1477469534.774:    -12  88  11  627
1477469534.789:     19  88  11  627
1477469534.790:     34  88  11  627
1477469534.791:      4  88  11  627
1477469534.791:    -52  88  11  627
1477469534.793:    -87  88  11  627
1477469534.793:    -81  88  11  627
1477469534.794:    -57  88  11  627
1477469534.795:    -59  88  11  627
1477469534.796:    -99  88  11  627
1477469534.797:   -152  88  11  627
1477469534.807:   -185  88  11  627
1477469534.807:   -188  88  11  627
1477469534.808:   -176  88  11  627
1477469534.808:   -167  88  11  627
1477469534.808:   -166  88  11  627
1477469534.808:   -172  88  11  627
1477469534.808:   -178  88  11  627
1477469534.810:   -179  88  11  627
1477469534.812:   -170  88  11  627
1477469534.815:   -159  88  11  627
1477469534.816:   -161  88  11  627
1477469534.817:   -184  88  11  627
1477469534.821:   -213  88  11  627
1477469534.821:   -224  88  11  627
1477469534.822:   -206  88  11  627
1477469534.830:   -180  88  11  627
1477469534.831:   -171  88  11  627
1477469534.832:   -184  88  11  627
1477469534.835:   -205  88  11  627
1477469534.836:   -221  88  11  627
1477469534.838:   -237  88  11  627
1477469534.838:   -262  88  11  627
1477469534.840:   -295  88  11  627
1477469534.841:   -327  88  11  627
1477469534.842:   -352  88  11  627
1477469534.847:   -372  88  11  627
1477469534.861:   -393  88  11  627
1477469534.862:   -412  88  11  627
1477469534.862:   -420  88  11  627
1477469534.862:   -412  88  11  627
1477469534.863:   -392  88  11  627
1477469534.863:   -368  88  11  627
1477469534.864:   -345  88  11  627
1477469534.864:   -323  88  11  627
1477469534.865:   -295  88  11  627
1477469534.867:   -257  88  11  627
1477469534.868:   -212  88  11  627
1477469534.869:   -176  88  11  627
1477469534.870:   -163  88  11  627
1477469534.875:   -172  88  11  627
1477469534.883:   -189  88  11  627
1477469534.883:   -193  88  11  627
1477469534.884:   -182  88  11  627
1477469534.884:   -169  88  11  627
1477469534.884:   -164  88  11  627
1477469534.885:   -167  88  11  627
1477469534.886:   -166  88  11  627
1477469534.887:   -153  88  11  627
1477469534.895:   -137  88  11  627
1477469534.895:   -132  88  11  627
1477469534.899:   -144  88  11  627
1477469534.900:   -164  88  11  627
1477469534.904:   -181  88  11  627
1477469534.904:   -190  88  11  627
1477469534.905:   -198  88  11  627
1477469534.907:   -217  88  11  627
1477469534.907:   -253  88  11  627
1477469534.909:   -305  88  11  627
1477469534.913:   -367  88  11  627
1477469534.914:   -430  88  11  627
1477469534.932:   -482  88  11  627
1477469534.932:   -514  88  11  627
1477469534.932:   -534  88  11  627
1477469534.932:   -559  88  11  627
1477469534.932:   -597  88  11  627
1477469534.932:   -630  88  11  627
1477469534.932:   -633  88  11  627
1477469534.934:   -609  88  11  627
1477469534.935:   -587  88  11  627
1477469534.937:   -595  88  11  627
1477469534.937:   -627  88  11  627
1477469534.939:   -650  88  11  627
1477469534.939:   -639  88  11  627
1477469534.944:   -605  88  11  627
1477469534.945:   -575  88  11  627
1477469534.946:   -562  88  11  627
1477469534.951:   -559  88  11  627
1477469534.951:   -549  88  11  627
1477469534.963:   -528  88  11  627
1477469535.050:   -500  88  11  627
1477469535.050:   -471  88  11  627
1477469535.051:   -449  88  11  627
1477469535.051:   -437  88  11  627
1477469535.052:   -431  88  11  627
1477469535.069:   -411  88  11  627
1477469535.069:   -363  88  11  627
1477469535.069:   -297  88  11  627
1477469535.069:   -242  88  11  627
1477469535.070:   -219  88  11  627
1477469535.070:   -220  88  11  627
1477469535.070:   -224  88  11  627
1477469535.070:   -222  88  11  627
1477469535.070:   -210  88  11  627
1477469535.070:   -164  88  11  627
1477469535.070:    -39  88  11  627
1477469535.071:    205  88  11  627
1477469535.071:    555  88  11  627
1477469535.071:    944  88  11  627
1477469535.071:   1285  88  11  627
1477469535.071:   1524  88  11  627
1477469535.071:   1659  88  11  627
1477469535.071:   1726  88  11  627
1477469535.072:   1741  88  11  627
1477469535.072:   1652  88  11  627
1477469535.072:   1355  88  11  627
1477469535.072:    786  88  11  627
1477469535.072:     18  88  11  627
1477469535.072:   -775  88  11  627
1477469535.072:  -1471  88  11  627
1477469535.072:  -2114  88  11  627
1477469535.072:  -2850  88  11  627
1477469535.073:  -3725  88  11  627
1477469535.073:  -4576  88  11  627
1477469535.073:  -5152  88  11  627
1477469535.073:  -5339  88  11  627
1477469535.073:  -5232  88  11  627
1477469535.073:  -5002  88  11  627
1477469535.073:  -4706  88  11  627
1477469535.074:  -4272  88  11  627
1477469535.074:  -3627  88  11  627
1477469535.074:  -2824  88  11  627
1477469535.074:  -2012  88  11  627
1477469535.075:  -1324 109  14  598
1477469535.075:   -798 109  14  598
1477469535.075:   -411 109  14  598
1477469535.075:   -135 109  14  598
1477469535.075:     36 109  14  598
1477469535.075:    108 109  14  598
1477469535.075:    108 109  14  598
1477469535.075:     79 109  14  598
1477469535.076:     61 109  14  598
1477469535.076:     78 109  14  598
1477469535.076:    134 109  14  598
1477469535.076:    219 109  14  598
1477469535.076:    325 109  14  598
1477469535.076:    439 109  14  598
1477469535.076:    541 109  14  598
1477469535.077:    609 109  14  598
1477469535.077:    627 109  14  598
1477469535.077:    599 109  14  598
1477469535.079:    548 109  14  598
1477469535.080:    505 109  14  598
1477469535.080:    491 109  14  598
1477469535.081:    506 109  14  598
1477469535.082:    532 109  14  598
1477469535.082:    547 109  14  598
1477469535.083:    537 109  14  598
1477469535.085:    505 109  14  598
1477469535.090:    464 109  14  598
1477469535.090:    430 109  14  598
1477469535.098:    407 109  14  598
1477469535.099:    388 109  14  598
1477469535.099:    366 109  14  598
1477469535.099:    341 109  14  598
1477469535.099:    328 109  14  598
1477469535.099:    344 109  14  598
1477469535.102:    387 109  14  598
1477469535.103:    429 109  14  598
1477469535.108:    439 109  14  598
1477469535.109:    411 109  14  598
1477469535.109:    373 109  14  598
1477469535.112:    364 109  14  598
1477469535.114:    387 109  14  598
1477469535.116:    414 109  14  598
1477469535.117:    416 109  14  598
1477469535.122:    396 109  14  598
1477469535.132:    383 109  14  598
1477469535.132:    399 109  14  598
1477469535.132:    433 109  14  598
1477469535.133:    463 109  14  598
1477469535.133:    477 109  14  598
1477469535.133:    481 109  14  598
1477469535.135:    486 109  14  598
1477469535.136:    492 109  14  598
1477469535.137:    496 109  14  598
1477469535.166:    506 109  14  598
1477469535.168:    532 109  14  598
1477469535.169:    569 109  14  598
1477469535.170:    603 109  14  598
1477469535.171:    621 109  14  598
1477469535.171:    623 109  14  598
1477469535.171:    622 109  14  598
1477469535.171:    628 109  14  598
1477469535.172:    640 109  14  598
1477469535.172:    653 109  14  598
1477469535.172:    658 109  14  598
1477469535.172:    656 109  14  598
1477469535.172:    650 109  14  598
1477469535.173:    648 109  14  598
1477469535.173:    659 109  14  598
1477469535.174:    678 109  14  598
1477469535.174:    692 109  14  598
1477469535.178:    686 109  14  598
1477469535.178:    666 109  14  598
1477469535.178:    649 109  14  598
1477469535.179:    647 109  14  598
1477469535.217:    657 109  14  598
1477469535.218:    668 109  14  598
1477469535.218:    678 109  14  598
1477469535.219:    695 109  14  598
1477469535.219:    725 109  14  598
1477469535.219:    765 109  14  598
1477469535.219:    799 109  14  598
1477469535.219:    823 109  14  598
1477469535.221:    848 109  14  598
1477469535.224:    878 109  14  598
1477469535.224:    908 109  14  598
1477469535.224:    933 109  14  598
1477469535.224:    951 109  14  598
1477469535.225:    967 109  14  598
1477469535.225:    979 109  14  598
1477469535.225:    978 109  14  598
1477469535.225:    968 109  14  598
1477469535.230:    960 109  14  598
1477469535.231:    967 109  14  598
1477469535.231:    976 109  14  598
1477469535.231:    969 109  14  598
1477469535.232:    946 109  14  598
1477469535.235:    934 109  14  598
1477469535.235:    949 109  14  598
1477469535.236:    969 109  14  598
1477469535.237:    963 109  14  598
1477469535.253:    932 109  14  598
1477469535.254:    915 109  14  598
1477469535.254:    939 109  14  598
1477469535.254:    987 109  14  598
1477469535.254:   1016 109  14  598
1477469535.255:   1015 109  14  598
1477469535.255:   1015 109  14  598
1477469535.255:   1045 109  14  598
1477469535.255:   1089 109  14  598
1477469535.255:   1108 109  14  598
1477469535.257:   1087 109  14  598
1477469535.257:   1048 109  14  598
1477469535.259:   1019 109  14  598
1477469535.265:   1001 109  14  598
1477469535.277:    977 109  14  598
1477469535.277:    946 109  14  598
1477469535.277:    924 109  14  598
1477469535.277:    919 109  14  598
1477469535.278:    918 109  14  598
1477469535.281:    900 109  14  598
1477469535.283:    867 109  14  598
1477469535.284:    840 109  14  598
1477469535.291:    829 109  14  598
1477469535.291:    818 109  14  598
1477469535.302:    787 109  14  598
1477469535.302:    740 109  14  598
1477469535.302:    698 109  14  598
1477469535.303:    673 109  14  598
1477469535.303:    651 109  14  598
1477469535.303:    605 109  14  598
1477469535.303:    535 109  14  598
1477469535.303:    468 109  14  598
1477469535.311:    423 109  14  598
1477469535.311:    390 109  14  598
1477469535.327:    342 109  14  598
1477469535.329:    277 109  14  598
1477469535.329:    224 109  14  598
1477469535.329:    207 109  14  598
1477469535.330:    212 109  14  598
1477469535.332:    202 109  14  598
1477469535.332:    159 109  14  598
1477469535.333:    104 109  14  598
1477469535.334:     68 109  14  598
1477469535.335:     54 109  14  598
1477469535.335:     39 109  14  598
1477469535.336:      7 109  14  598
1477469535.336:    -30 109  14  598
1477469535.337:    -53 109  14  598
1477469535.338:    -57 109  14  598
1477469535.338:    -57 109  14  598
1477469535.339:    -69 109  14  598
1477469535.340:    -89 109  14  598
1477469535.352:   -107 109  14  598
1477469535.352:   -115 109  14  598
1477469535.353:   -115 109  14  598
1477469535.353:   -112 109  14  598
1477469535.354:   -108 109  14  598
1477469535.354:   -100 109  14  598
1477469535.355:    -87 109  14  598
1477469535.355:    -70 109  14  598
1477469535.355:    -55 109  14  598
1477469535.356:    -47 109  14  598
1477469535.356:    -47 109  14  598
1477469535.356:    -54 109  14  598
1477469535.357:    -60 109  14  598
1477469535.362:    -58 109  14  598
1477469535.372:    -39 109  14  598
1477469535.372:     -2 109  14  598
1477469535.373:     40 109  14  598
1477469535.373:     69 109  14  598
1477469535.374:     79 109  14  598
1477469535.374:     83 109  14  598
1477469535.374:    103 109  14  598
1477469535.378:    135 109  14  598
1477469535.561:    159 109  14  598
1477469535.561:    157 109  14  598
1477469535.561:    138 109  14  598
1477469535.561:    129 109  14  598
1477469535.562:    145 109  14  598
1477469535.562:    176 109  14  598
1477469535.562:    205 109  14  598
1477469535.562:    229 109  14  598
1477469535.562:    255 109  14  598
1477469535.562:    279 109  14  598
1477469535.563:    289 109  14  598
1477469535.563:    286 109  14  598
1477469535.563:    286 109  14  598
1477469535.563:    303 109  14  598
1477469535.563:    327 109  14  598
1477469535.563:    328 109  14  598
1477469535.564:    297 109  14  598
1477469535.564:    262 109  14  598
1477469535.564:    259 109  14  598
1477469535.564:    287 109  14  598
1477469535.565:    317 109  14  598
1477469535.565:    323 109  14  598
1477469535.565:    317 109  14  598
1477469535.565:    329 109  14  598
1477469535.566:    367 109  14  598
1477469535.566:    408 109  14  598
1477469535.566:    422 109  14  598
1477469535.566:    409 109  14  598
1477469535.566:    392 109  14  598
1477469535.567:    387 109  14  598
1477469535.567:    389 109  14  598
1477469535.567:    385 109  14  598
1477469535.567:    375 109  14  598
1477469535.567:    371 109  14  598
1477469535.567:    378 109  14  598
1477469535.568:    385 109  14  598
1477469535.568:    379 109  14  598
1477469535.568:    363 109  14  598
1477469535.569:    352 109  14  598
1477469535.569:    353 109  14  598
1477469535.569:    355 109  14  598
1477469535.569:    346 109  14  598
1477469535.569:    324 109  14  598
1477469535.569:    302 109  14  598
1477469535.569:    296 109  14  598
1477469535.569:    305 109  14  598
1477469535.570:    320 109  14  598
1477469535.570:    327 109  14  598
1477469535.570:    320 109  14  598
1477469535.570:    306 109  14  598
1477469535.570:    300 109  14  598
1477469535.570:    307 109  14  598
1477469535.571:    318 109  14  598
1477469535.571:    319 109  14  598
1477469535.571:    309 109  14  598
1477469535.571:    299 109  14  598
1477469535.571:    299 109  14  598
1477469535.571:    300 109  14  598
1477469535.571:    288 109  14  598
1477469535.572:    259 109  14  598
1477469535.572:    229 109  14  598
1477469535.572:    216 109  14  598
1477469535.572:    221 109  14  598
1477469535.573:    231 109  14  598
1477469535.573:    240 109  14  598
1477469535.573:    253 109  14  598
1477469535.573:    278 109  14  598
1477469535.573:    310 109  14  598
1477469535.573:    341 109  14  598
1477469535.574:    365 109  14  598
1477469535.574:    388 109  14  598
1477469535.574:    420 109  14  598
1477469535.574:    457 109  14  598
1477469535.574:    486 109  14  598
1477469535.574:    497 109  14  598
1477469535.574:    498 109  14  598
1477469535.575:    502 109  14  598
1477469535.575:    513 109  14  598
1477469535.575:    521 109  14  598
1477469535.575:    514 109  14  598
1477469535.575:    495 109  14  598
1477469535.575:    482 109  14  598
1477469535.576:    487 109  14  598
1477469535.576:    502 109  14  598
1477469535.576:    517 109  14  598
1477469535.576:    530 109  14  598
1477469535.576:    554 109  14  598
1477469535.576:    583 109  14  598
1477469535.577:    598 109  14  598
1477469535.577:    580 109  14  598
1477469535.577:    536 109  14  598
1477469535.577:    491 109  14  598
1477469535.577:    461 109  14  598
1477469535.577:    434 109  14  598
1477469535.577:    394 109  14  598
1477469535.578:    340 109  14  598
1477469535.578:    286 109  14  598
1477469535.578:    245 109  14  598
1477469535.578:    209 109  14  598
1477469535.578:    169 109  14  598
1477469535.579:    125 109  14  598
1477469535.580:     92 109  14  598
1477469535.581:     80 109  14  598
1477469535.582:     83 109  14  598
1477469535.609:     89 109  14  598
1477469535.610:     95 109  14  598
1477469535.610:    106 109  14  598
1477469535.610:    128 109  14  598
1477469535.610:    157 109  14  598
1477469535.610:    183 109  14  598
1477469535.610:    197 109  14  598
1477469535.611:    201 109  14  598
1477469535.611:    200 109  14  598
1477469535.611:    196 109  14  598
1477469535.611:    192 109  14  598
1477469535.611:    195 109  14  598
1477469535.612:    214 109  14  598
1477469535.612:    250 109  14  598
1477469535.612:    285 109  14  598
1477469535.612:    303 109  14  598
1477469535.612:    304 109  14  598
1477469535.615:    309 109  14  598
1477469535.619:    341 109  14  598
1477469535.619:    390 109  14  598
1477469535.621:    428 109  14  598
1477469535.622:    434 109  14  598
1477469535.623:    416 109  14  598
1477469535.626:    400 109  14  598
1477469535.629:    401 109  14  598
1477469535.633:    428 109  14  598
1477469535.643:    488 109  14  598
1477469535.643:    601 109  14  598
1477469535.643:    787 109  14  598
1477469535.643:   1062 109  14  598
1477469535.643:   1422 109  14  598
1477469535.644:   1822 109  14  598
1477469535.647:   2176 109  14  598
1477469535.647:   2409 109  14  598
1477469535.649:   2515 109  14  598
1477469535.650:   2550 109  14  598
1477469535.661:   2529 109  14  598
1477469535.662:   2352 109  14  598
1477469535.662:   1887 109  14  598
1477469535.662:   1141 109  14  598
1477469535.662:    305 109  14  598
1477469535.662:   -419 109  14  598
1477469535.664:  -1043 109  14  598
1477469535.665:  -1761 109  14  598
1477469535.668:  -2694 109  14  598
1477469535.670:  -3689 109  14  598
1477469535.687:  -4430 109  14  598
1477469535.687:  -4738 109  14  598
1477469535.687:  -4712 109  14  598
1477469535.687:  -4565 109  14  598
1477469535.687:  -4377 109  14  598
1477469535.687:  -4052 109  14  598
1477469535.688:  -3482 109  14  598
1477469535.688:  -2697 109  14  598
1477469535.688:  -1852 109  14  598
1477469535.690:  -1098 109  14  598
1477469535.691:   -500 109  14  598
1477469535.692:    -63 109  14  598
1477469535.695:    226 109  14  598
1477469535.697:    388 109  14  598
1477469535.699:    459 109  14  598
1477469535.702:    479 109  14  598
1477469535.703:    467 109  14  598
1477469535.710:    433 109  14  598
1477469535.727:    398 109  14  598
1477469535.727:    395 109  14  598
1477469535.729:    450 109  14  598
1477469535.729:    554 109  14  598
1477469535.730:    673 109  14  598
1477469535.730:    771 109  14  598
1477469535.730:    834 109  14  598
1477469535.730:    863 109  14  598
1477469535.731:    864 109  14  598
1477469535.731:    838 109  14  598
1477469535.731:    800 109  14  598
1477469535.732:    774 109  14  598
1477469535.732:    786 109  14  598
1477469535.737:    833 109  14  598
1477469535.747:    884 109  14  598
1477469535.747:    911 109  14  598
1477469535.749:    912 109  14  598
1477469535.750:    906 109  14  598
1477469535.751:    903 109  14  598
1477469535.752:    892 109  14  598
1477469535.752:    863 109  14  598
1477469535.753:    830 109  14  598
1477469535.753:    818 109  14  598
1477469535.754:    835 109  14  598
1477469535.755:    861 109  14  598
1477469535.756:    870 109  14  598
1477469535.768:    859 109  14  598
1477469535.768:    844 109  14  598
1477469535.768:    845 109  14  598
1477469535.769:    859 109  14  598
1477469535.769:    875 109  14  598
1477469535.769:    881 109  14  598
1477469535.770:    878 109  14  598
1477469535.771:    875 109  14  598
1477469535.781:    881 109  14  598
1477469535.782:    897 109  14  598
1477469535.782:    914 109  14  598
1477469535.783:    918 109  14  598
1477469535.786:    908 109  14  598
1477469535.786:    901 109  14  598
1477469535.787:    912 109  14  598
1477469535.789:    939 109  14  598
1477469535.790:    958 109  14  598
1477469535.793:    954 109  14  598
1477469535.819:    939 109  14  598
1477469535.819:    936 109  14  598
1477469535.819:    954 109  14  598
1477469535.819:    979 109  14  598
1477469535.819:    996 109  14  598
1477469535.820:   1008 109  14  598
1477469535.820:   1026 109  14  598
1477469535.820:   1051 109  14  598
1477469535.820:   1068 109  14  598
1477469535.820:   1068 109  14  598
1477469535.820:   1058 109  14  598
1477469535.821:   1054 109  14  598
1477469535.821:   1062 109  14  598
1477469535.821:   1069 109  14  598
1477469535.821:   1069 109  14  598
1477469535.823:   1067 109  14  598
1477469535.826:   1076 109  14  598
1477469535.834:   1101 109  14  598
1477469535.835:   1127 109  14  598
1477469535.835:   1138 109  14  598
1477469535.835:   1133 109  14  598
1477469535.838:   1126 109  14  598
1477469535.839:   1131 109  14  598
1477469535.839:   1149 109  14  598
1477469535.846:   1168 109  14  598
1477469535.847:   1182 109  14  598
1477469535.862:   1197 109  14  598
1477469535.862:   1220 109  14  598
1477469535.862:   1252 109  14  598
1477469535.862:   1285 109  14  598
1477469535.862:   1316 109  14  598
1477469535.862:   1348 109  14  598
1477469535.863:   1381 109  14  598
1477469535.863:   1411 109  14  598
1477469535.863:   1432 109  14  598
1477469535.864:   1447 109  14  598
1477469535.867:   1464 109  14  598
1477469535.868:   1480 109  14  598
1477469535.871:   1484 109  14  598
1477469535.872:   1466 109  14  598
1477469535.883:   1438 109  14  598
1477469535.885:   1421 109  14  598
1477469535.886:   1425 109  14  598
1477469535.886:   1435 109  14  598
1477469535.887:   1433 109  14  598
1477469535.888:   1422 109  14  598
1477469535.890:   1415 109  14  598
1477469535.893:   1425 109  14  598
1477469535.903:   1440 109  14  598
1477469535.903:   1441 109  14  598
1477469535.903:   1419 109  14  598
1477469535.904:   1380 109  14  598
1477469535.904:   1341 109  14  598
1477469535.904:   1315 109  14  598
1477469535.904:   1303 109  14  598
1477469535.904:   1294 109  14  598
1477469535.905:   1275 109  14  598
1477469535.910:   1242 109  14  598
1477469535.911:   1205 109  14  598
1477469535.916:   1177 109  14  598
1477469535.916:   1153 109  14  598
1477469535.917:   1117 109  14  598
1477469535.920:   1052 109  14  598
1477469535.921:    967 109  14  598
1477469535.923:    885 109  14  598
1477469535.927:    823 109  14  598
1477469535.945:    773 109  14  598
1477469535.945:    714 109  14  598
1477469535.945:    639 109  14  598
1477469535.945:    561 109  14  598
1477469535.945:    498 109  14  598
1477469535.945:    450 109  14  598
1477469535.946:    401 109  14  598
1477469535.946:    336 109  14  598
1477469535.946:    260 109  14  598
1477469535.946:    193 109  14  598
1477469535.946:    151 102  13  635
1477469535.947:    125 102  13  635
1477469535.947:     93 102  13  635
1477469535.950:     39 102  13  635
1477469535.954:    -29 102  13  635
1477469535.954:    -90 102  13  635
1477469535.976:   -126 102  13  635
1477469535.979:   -141 102  13  635
1477469535.980:   -149 102  13  635
1477469535.984:   -162 102  13  635
1477469535.991:   -179 102  13  635
1477469535.991:   -193 102  13  635
1477469535.992:   -203 102  13  635
1477469535.992:   -211 102  13  635
1477469535.992:   -220 102  13  635
1477469535.994:   -233 102  13  635
1477469535.995:   -254 102  13  635
1477469535.996:   -288 102  13  635
1477469535.996:   -327 102  13  635
1477469535.999:   -360 102  13  635
1477469535.999:   -374 102  13  635
1477469535.999:   -376 102  13  635
1477469535.999:   -381 102  13  635
1477469535.999:   -393 102  13  635
1477469536.000:   -405 102  13  635
1477469536.000:   -404 102  13  635
1477469536.000:   -392 102  13  635
1477469536.000:   -381 102  13  635
1477469536.001:   -378 102  13  635
1477469536.002:   -376 102  13  635
1477469536.004:   -366 102  13  635
1477469536.005:   -351 102  13  635
1477469536.012:   -339 102  13  635
1477469536.012:   -337 102  13  635
1477469536.021:   -344 102  13  635
1477469536.021:   -351 102  13  635
1477469536.022:   -353 102  13  635
1477469536.022:   -345 102  13  635
1477469536.036:   -327 102  13  635
1477469536.037:   -307 102  13  635
1477469536.037:   -293 102  13  635
1477469536.038:   -288 102  13  635
1477469536.038:   -283 102  13  635
1477469536.039:   -270 102  13  635
1477469536.039:   -255 102  13  635
1477469536.040:   -253 102  13  635
1477469536.040:   -265 102  13  635
1477469536.041:   -277 102  13  635
1477469536.041:   -272 102  13  635
1477469536.042:   -249 102  13  635
1477469536.042:   -216 102  13  635
1477469536.043:   -186 102  13  635
1477469536.044:   -159 102  13  635
1477469536.050:   -134 102  13  635
1477469536.055:   -110 102  13  635
1477469536.055:    -85 102  13  635
1477469536.055:    -60 102  13  635
1477469536.055:    -39 102  13  635
1477469536.059:    -31 102  13  635
1477469536.059:    -32 102  13  635
1477469536.060:    -27 102  13  635
1477469536.064:      2 102  13  635
1477469536.066:     55 102  13  635
1477469536.071:    112 102  13  635
1477469536.071:    158 102  13  635
1477469536.073:    193 102  13  635
1477469536.074:    228 102  13  635
1477469536.076:    267 102  13  635
1477469536.077:    304 102  13  635
1477469536.079:    338 102  13  635
1477469536.080:    378 102  13  635
1477469536.082:    426 102  13  635
1477469536.088:    468 102  13  635
1477469536.089:    492 102  13  635
1477469536.090:    507 102  13  635
1477469536.091:    536 102  13  635
1477469536.092:    588 102  13  635
1477469536.094:    642 102  13  635
1477469536.110:    676 102  13  635
1477469536.110:    698 102  13  635
1477469536.110:    735 102  13  635
1477469536.110:    801 102  13  635
1477469536.110:    877 102  13  635
1477469536.110:    935 102  13  635
1477469536.111:    970 102  13  635
1477469536.111:    999 102  13  635
1477469536.112:   1026 102  13  635
1477469536.114:   1025 102  13  635
1477469536.115:    971 102  13  635
1477469536.116:    870 102  13  635
1477469536.122:    758 102  13  635
1477469536.122:    661 102  13  635
1477469536.133:    569 102  13  635
1477469536.133:    468 102  13  635
1477469536.133:    360 102  13  635
1477469536.133:    267 102  13  635
1477469536.133:    201 102  13  635
1477469536.135:    151 102  13  635
1477469536.135:    107 102  13  635
1477469536.137:     78 102  13  635
1477469536.139:     75 102  13  635
1477469536.141:     88 102  13  635
1477469536.143:     93 102  13  635
1477469536.144:     72 102  13  635
1477469536.156:     42 102  13  635
1477469536.156:     24 102  13  635
1477469536.156:     16 102  13  635
1477469536.156:     -3 102  13  635
1477469536.156:    -44 102  13  635
1477469536.158:    -92 102  13  635
1477469536.158:   -120 102  13  635
1477469536.162:   -121 102  13  635
1477469536.162:   -113 102  13  635
1477469536.164:   -111 102  13  635
1477469536.166:   -112 102  13  635
1477469536.167:   -105 102  13  635
1477469536.172:    -87 102  13  635
1477469536.174:    -65 102  13  635
1477469536.176:    -44 102  13  635
1477469536.177:    -25 102  13  635
1477469536.179:     -4 102  13  635
1477469536.180:     22 102  13  635
1477469536.182:     56 102  13  635
1477469536.184:     93 102  13  635
1477469536.217:    122 102  13  635
1477469536.218:    133 102  13  635
1477469536.229:    131 102  13  635
1477469536.229:    137 102  13  635
1477469536.230:    163 102  13  635
1477469536.230:    199 102  13  635
1477469536.230:    217 102  13  635
1477469536.230:    215 102  13  635
1477469536.230:    221 102  13  635
1477469536.230:    252 102  13  635
1477469536.230:    296 102  13  635
1477469536.231:    320 102  13  635
1477469536.231:    310 102  13  635
1477469536.231:    292 102  13  635
1477469536.231:    290 102  13  635
1477469536.231:    297 102  13  635
1477469536.231:    291 102  13  635
1477469536.231:    266 102  13  635
1477469536.232:    229 102  13  635
1477469536.232:    180 102  13  635
1477469536.232:    108 102  13  635
1477469536.232:     11 102  13  635
1477469536.233:    -86 102  13  635
1477469536.233:   -158 102  13  635
1477469536.233:   -215 102  13  635
1477469536.237:   -291 102  13  635
1477469536.237:   -385 102  13  635
1477469536.238:   -448 102  13  635
1477469536.240:   -430 102  13  635
1477469536.247:   -350 102  13  635
1477469536.301:   -276 102  13  635
1477469536.301:   -254 102  13  635
1477469536.301:   -261 102  13  635
1477469536.301:   -247 102  13  635
1477469536.302:   -195 102  13  635
1477469536.302:   -143 102  13  635
1477469536.304:   -134 102  13  635
1477469536.305:   -166 102  13  635
1477469536.305:   -204 102  13  635
1477469536.305:   -222 102  13  635
1477469536.305:   -217 102  13  635
1477469536.306:   -200 102  13  635
1477469536.306:   -178 102  13  635
1477469536.306:   -149 102  13  635
1477469536.306:   -121 102  13  635
1477469536.306:   -108 102  13  635
1477469536.306:   -108 102  13  635
1477469536.306:   -111 102  13  635
1477469536.307:   -100 102  13  635
1477469536.307:    -63 102  13  635
1477469536.307:     -7 102  13  635
1477469536.308:     45 102  13  635
1477469536.308:     67 102  13  635
1477469536.308:     53 102  13  635
1477469536.308:     19 102  13  635
1477469536.308:      5 102  13  635
1477469536.309:     42 102  13  635
1477469536.310:    135 102  13  635
1477469536.310:    272 102  13  635
1477469536.310:    457 102  13  635
1477469536.310:    722 102  13  635
1477469536.311:   1087 102  13  635
1477469536.311:   1513 102  13  635
1477469536.312:   1890 102  13  635
1477469536.312:   2114 102  13  635
1477469536.314:   2183 102  13  635
1477469536.324:   2177 102  13  635
1477469536.324:   2132 102  13  635
1477469536.324:   1937 102  13  635
1477469536.324:   1427 102  13  635
1477469536.325:    579 102  13  635
1477469536.325:   -399 102  13  635
1477469536.327:  -1257 102  13  635
1477469536.332:  -1947 102  13  635
1477469536.343:  -2661 102  13  635
1477469536.343:  -3573 102  13  635
1477469536.343:  -4589 102  13  635
1477469536.343:  -5386 102  13  635
1477469536.344:  -5716 102  13  635
1477469536.345:  -5618 102  13  635
1477469536.345:  -5327 102  13  635
1477469536.347:  -5010 102  13  635
1477469536.347:  -4634 102  13  635
1477469536.349:  -4073 102  13  635
1477469536.350:  -3296 102  13  635
1477469536.352:  -2425 102  13  635
1477469536.355:  -1631 102  13  635
1477469536.356:  -1013 102  13  635
1477469536.360:   -569 102  13  635
1477469536.360:   -260 102  13  635
1477469536.363:    -58 102  13  635
1477469536.363:     51 102  13  635
1477469536.366:     80 102  13  635
1477469536.369:     53 102  13  635
1477469536.379:      2 102  13  635
1477469536.379:    -40 102  13  635
1477469536.379:    -53 102  13  635
1477469536.380:    -31 102  13  635
1477469536.380:     10 102  13  635
1477469536.380:     51 102  13  635
1477469536.383:     77 102  13  635
1477469536.384:     89 102  13  635
1477469536.388:     89 102  13  635
1477469536.389:     71 102  13  635
1477469536.402:     30 102  13  635
1477469536.402:    -31 102  13  635
1477469536.402:    -83 102  13  635
1477469536.403:   -100 102  13  635
1477469536.403:    -74 102  13  635
1477469536.403:    -25 102  13  635
1477469536.404:     13 102  13  635
1477469536.404:     12 102  13  635
1477469536.405:    -33 102  13  635
1477469536.407:   -108 102  13  635
1477469536.410:   -185 102  13  635
1477469536.412:   -237 102  13  635
1477469536.421:   -254 102  13  635
1477469536.421:   -252 102  13  635
1477469536.421:   -260 102  13  635
1477469536.444:   -289 102  13  635
1477469536.446:   -317 102  13  635
1477469536.447:   -316 102  13  635
1477469536.449:   -281 102  13  635
1477469536.449:   -242 102  13  635
1477469536.469:   -229 102  13  635
1477469536.469:   -240 102  13  635
1477469536.469:   -248 102  13  635
1477469536.470:   -227 102  13  635
1477469536.470:   -181 102  13  635
1477469536.470:   -135 102  13  635
1477469536.470:   -111 102  13  635
1477469536.470:   -109 102  13  635
1477469536.470:   -117 102  13  635
1477469536.470:   -129 102  13  635
1477469536.471:   -149 102  13  635
1477469536.471:   -178 102  13  635
1477469536.471:   -206 102  13  635
1477469536.471:   -219 102  13  635
1477469536.471:   -215 102  13  635
1477469536.472:   -208 102  13  635
1477469536.472:   -210 102  13  635
1477469536.472:   -213 102  13  635
1477469536.472:   -199 102  13  635
1477469536.472:   -165 102  13  635
1477469536.472:   -132 102  13  635
1477469536.473:   -124 102  13  635
1477469536.473:   -143 102  13  635
1477469536.475:   -163 102  13  635
1477469536.476:   -168 102  13  635
1477469536.478:   -161 102  13  635
1477469536.481:   -158 102  13  635
1477469536.483:   -158 102  13  635
1477469536.484:   -145 102  13  635
1477469536.488:   -114 102  13  635
1477469536.500:    -86 102  13  635
1477469536.500:    -82 102  13  635
1477469536.500:   -101 102  13  635
1477469536.500:   -118 102  13  635
1477469536.500:   -113 102  13  635
1477469536.500:    -93 102  13  635
1477469536.500:    -75 102  13  635
1477469536.501:    -63 102  13  635
1477469536.507:    -44 102  13  635
1477469536.507:    -10 102  13  635
1477469536.509:     30 102  13  635
1477469536.511:     60 102  13  635
1477469536.512:     76 102  13  635
1477469536.515:     87 102  13  635
1477469536.516:     99 102  13  635
1477469536.517:    107 102  13  635
1477469536.520:    110 102  13  635
1477469536.526:    117 102  13  635
1477469536.543:    136 102  13  635
1477469536.544:    165 102  13  635
1477469536.544:    194 102  13  635
1477469536.545:    221 102  13  635
1477469536.546:    249 102  13  635
1477469536.546:    277 102  13  635
1477469536.547:    296 102  13  635
1477469536.548:    308 102  13  635
1477469536.548:    331 102  13  635
1477469536.549:    383 102  13  635
1477469536.549:    452 102  13  635
1477469536.549:    500 102  13  635
1477469536.549:    505 102  13  635
1477469536.552:    489 102  13  635
1477469536.562:    487 102  13  635
1477469536.562:    506 102  13  635
1477469536.562:    514 102  13  635
1477469536.563:    487 102  13  635
1477469536.563:    447 102  13  635
1477469536.563:    436 102  13  635
1477469536.567:    464 102  13  635
1477469536.567:    497 102  13  635
1477469536.567:    503 102  13  635
1477469536.569:    487 102  13  635
1477469536.570:    479 102  13  635
1477469536.572:    488 102  13  635
1477469536.575:    488 102  13  635
1477469536.579:    450 102  13  635
1477469536.580:    381 102  13  635
1477469536.587:    306 102  13  635
1477469536.587:    237 102  13  635
1477469536.587:    169 102  13  635
1477469536.587:     97 102  13  635
1477469536.589:     34 102  13  635
1477469536.593:    -10 102  13  635
1477469536.593:    -47 102  13  635
1477469536.606:    -99 102  13  635
1477469536.606:   -166 102  13  635
1477469536.607:   -227 101  13  639
1477469536.607:   -270 101  13  639
1477469536.608:   -314 101  13  639
1477469536.608:   -383 101  13  639
1477469536.608:   -475 101  13  639
1477469536.609:   -564 101  13  639
1477469536.610:   -626 101  13  639
1477469536.611:   -676 101  13  639
1477469536.613:   -740 101  13  639
1477469536.616:   -823 101  13  639
1477469536.626:   -897 101  13  639
1477469536.626:   -934 101  13  639
1477469536.627:   -944 101  13  639
1477469536.628:   -963 101  13  639
1477469536.629:  -1012 101  13  639
1477469536.629:  -1074 101  13  639
1477469536.631:  -1114 101  13  639
1477469536.634:  -1122 101  13  639
1477469536.635:  -1116 101  13  639
1477469536.636:  -1121 101  13  639
1477469536.637:  -1140 101  13  639
1477469536.639:  -1153 101  13  639
1477469536.645:  -1147 101  13  639
1477469536.646:  -1126 101  13  639
1477469536.648:  -1108 101  13  639
1477469536.648:  -1106 101  13  639
1477469536.650:  -1120 101  13  639
1477469536.651:  -1144 101  13  639
1477469536.652:  -1171 101  13  639
1477469536.655:  -1199 101  13  639
1477469536.657:  -1223 101  13  639
1477469536.661:  -1237 101  13  639
1477469536.674:  -1243 101  13  639
1477469536.674:  -1247 101  13  639
1477469536.674:  -1249 101  13  639
1477469536.675:  -1249 101  13  639
1477469536.675:  -1238 101  13  639
1477469536.675:  -1221 101  13  639
1477469536.676:  -1212 101  13  639
1477469536.676:  -1221 101  13  639
1477469536.676:  -1239 101  13  639
1477469536.680:  -1250 101  13  639
1477469536.681:  -1246 101  13  639
1477469536.682:  -1239 101  13  639
1477469536.693:  -1247 101  13  639
1477469536.693:  -1272 101  13  639
1477469536.693:  -1297 101  13  639
1477469536.694:  -1308 101  13  639
1477469536.694:  -1309 101  13  639
1477469536.694:  -1313 101  13  639
1477469536.696:  -1324 101  13  639
1477469536.700:  -1336 101  13  639
1477469536.701:  -1339 101  13  639
1477469536.703:  -1333 101  13  639
1477469536.704:  -1324 101  13  639
1477469536.708:  -1313 101  13  639
1477469536.709:  -1303 101  13  639
1477469536.710:  -1295 101  13  639
1477469536.714:  -1287 101  13  639
1477469536.715:  -1276 101  13  639
1477469536.716:  -1260 101  13  639
1477469536.718:  -1245 101  13  639
1477469536.722:  -1233 101  13  639
1477469536.722:  -1218 101  13  639
1477469536.724:  -1191 101  13  639
1477469536.725:  -1159 101  13  639
1477469536.727:  -1138 101  13  639
1477469536.730:  -1143 101  13  639
1477469536.743:  -1161 101  13  639
1477469536.743:  -1168 101  13  639
1477469536.743:  -1155 101  13  639
1477469536.743:  -1136 101  13  639
1477469536.744:  -1126 101  13  639
1477469536.744:  -1126 101  13  639
1477469536.744:  -1124 101  13  639
1477469536.746:  -1108 101  13  639
1477469536.750:  -1079 101  13  639
1477469536.750:  -1044 101  13  639
1477469536.752:  -1013 101  13  639
1477469536.753:   -996 101  13  639
1477469536.764:  -1001 101  13  639
1477469536.765:  -1018 101  13  639
1477469536.765:  -1027 101  13  639
1477469536.767:  -1012 101  13  639
1477469536.767:   -984 101  13  639
1477469536.768:   -970 101  13  639
1477469536.768:   -985 101  13  639
1477469536.779:  -1013 101  13  639
1477469536.786:  -1024 101  13  639
1477469536.787:  -1008 101  13  639
1477469536.787:   -982 101  13  639
1477469536.787:   -966 101  13  639
1477469536.787:   -963 101  13  639
1477469536.787:   -961 101  13  639
1477469536.787:   -948 101  13  639
1477469536.788:   -925 101  13  639
1477469536.788:   -901 101  13  639
1477469536.790:   -888 101  13  639
1477469536.791:   -889 101  13  639
1477469536.794:   -897 101  13  639
1477469536.794:   -904 101  13  639
1477469536.796:   -908 101  13  639
1477469536.797:   -914 101  13  639
1477469536.804:   -924 101  13  639
1477469536.813:   -929 101  13  639
1477469536.813:   -915 101  13  639
1477469536.814:   -882 101  13  639
1477469536.814:   -851 101  13  639
1477469536.814:   -845 101  13  639
1477469536.815:   -863 101  13  639
1477469536.818:   -881 101  13  639
1477469536.819:   -880 101  13  639
1477469536.819:   -867 101  13  639
1477469536.821:   -861 101  13  639
1477469536.824:   -868 101  13  639
1477469536.824:   -876 101  13  639
1477469536.826:   -873 101  13  639
1477469536.830:   -865 101  13  639
1477469536.830:   -862 101  13  639
1477469536.832:   -865 101  13  639
1477469536.835:   -862 101  13  639
1477469536.836:   -846 101  13  639
1477469536.837:   -827 101  13  639
1477469536.839:   -819 101  13  639
1477469536.847:   -827 101  13  639
1477469536.847:   -834 101  13  639
1477469536.847:   -819 101  13  639
1477469536.847:   -781 101  13  639
1477469536.848:   -739 101  13  639
1477469536.853:   -714 101  13  639
1477469536.853:   -714 101  13  639
1477469536.855:   -719 101  13  639
1477469536.857:   -708 101  13  639
1477469536.859:   -673 101  13  639
1477469536.871:   -628 101  13  639
1477469536.872:   -596 101  13  639
1477469536.873:   -588 101  13  639
1477469536.874:   -595 101  13  639
1477469536.874:   -597 101  13  639
1477469536.875:   -577 101  13  639
1477469536.875:   -534 101  13  639
1477469536.879:   -482 101  13  639
1477469536.889:   -442 101  13  639
1477469536.889:   -426 101  13  639
1477469536.889:   -423 101  13  639
1477469536.889:   -408 101  13  639
1477469536.889:   -377 101  13  639
1477469536.889:   -357 101  13  639
1477469536.890:   -382 101  13  639
1477469536.890:   -454 101  13  639
1477469536.896:   -532 101  13  639
1477469536.900:   -579 101  13  639
1477469536.900:   -597 101  13  639
1477469536.900:   -621 101  13  639
1477469536.901:   -672 101  13  639
1477469536.905:   -726 101  13  639
1477469536.905:   -742 101  13  639
1477469536.910:   -714 101  13  639
1477469536.969:   -677 101  13  639
1477469536.969:   -665 101  13  639
1477469536.969:   -676 101  13  639
1477469536.969:   -683 101  13  639
1477469536.969:   -667 101  13  639
1477469536.970:   -644 101  13  639
1477469536.970:   -633 101  13  639
1477469536.970:   -635 101  13  639
1477469536.970:   -632 101  13  639
1477469536.970:   -610 101  13  639
1477469536.970:   -581 101  13  639
1477469536.970:   -570 101  13  639
1477469536.971:   -581 101  13  639
1477469536.971:   -593 101  13  639
1477469536.971:   -586 101  13  639
1477469536.971:   -566 101  13  639
1477469536.971:   -559 101  13  639
1477469536.971:   -575 101  13  639
1477469536.971:   -599 101  13  639
1477469536.973:   -600 101  13  639
1477469536.973:   -571 101  13  639
1477469536.973:   -541 101  13  639
1477469536.973:   -545 101  13  639
1477469536.974:   -588 101  13  639
1477469536.974:   -648 101  13  639
1477469536.974:   -695 101  13  639
1477469536.974:   -709 101  13  639
1477469536.974:   -682 101  13  639
1477469536.974:   -613 101  13  639
1477469536.975:   -499 101  13  639
1477469536.975:   -324 101  13  639
1477469536.975:    -56 101  13  639
1477469536.975:    302 101  13  639
1477469536.975:    674 101  13  639
1477469536.975:    934 101  13  639
1477469536.977:   1015 101  13  639
1477469536.981:    977 101  13  639
1477469536.982:    920 101  13  639
1477469536.993:    821 101  13  639
1477469536.994:    505 101  13  639
1477469536.994:   -168 101  13  639
1477469536.994:  -1102 101  13  639
1477469536.995:  -2013 101  13  639
1477469536.995:  -2702 101  13  639
1477469536.995:  -3255 101  13  639
1477469536.997:  -3909 101  13  639
1477469536.998:  -4745 101  13  639
1477469537.000:  -5554 101  13  639
1477469537.004:  -6029 101  13  639
1477469537.004:  -6068 101  13  639
1477469537.009:  -5834 101  13  639
1477469537.009:  -5552 101  13  639
1477469537.011:  -5289 101  13  639
1477469537.012:  -4946 101  13  639
1477469537.034:  -4409 101  13  639
1477469537.035:  -3692 101  13  639
1477469537.035:  -2929 101  13  639
1477469537.035:  -2263 101  13  639
1477469537.035:  -1755 101  13  639
1477469537.035:  -1388 101  13  639
1477469537.035:  -1122 101  13  639
1477469537.036:   -938 101  13  639
1477469537.036:   -841 101  13  639
1477469537.036:   -831 101  13  639
1477469537.036:   -875 101  13  639
1477469537.036:   -925 101  13  639
1477469537.037:   -946 101  13  639
1477469537.042:   -937 101  13  639
1477469537.042:   -914 101  13  639
