timestamp: ADC HeartRate4sAverage HeartRate30sAverage HRV8sAverage
1477483466.600:   -488  89  11  664
1477483466.601:   -487  89  11  664
1477483466.603:   -477  89  11  664
1477483466.603:   -461  89  11  664
1477483466.603:   -446  89  11  664
1477483466.603:   -438  89  11  664
1477483466.604:   -435  89  11  664
1477483466.604:   -434  89  11  664
1477483466.607:   -430  89  11  664
1477483466.607:   -418  89  11  664
1477483466.608:   -403  89  11  664
1477483466.610:   -395  89  11  664
1477483466.611:   -399  89  11  664
1477483466.613:   -407  89  11  664
1477483466.622:   -406  89  11  664
1477483466.622:   -390  89  11  664
1477483466.622:   -369  89  11  664
1477483466.622:   -361  89  11  664
1477483466.623:   -373  89  11  664
1477483466.624:   -391  89  11  664
1477483466.627:   -397  89  11  664
1477483466.630:   -382  89  11  664
1477483466.634:   -358  89  11  664
1477483466.634:   -336  89  11  664
1477483466.646:   -319  89  11  664
1477483466.646:   -308  89  11  664
1477483466.646:   -309  89  11  664
1477483466.646:   -328  89  11  664
1477483466.646:   -358  89  11  664
1477483466.648:   -378  89  11  664
1477483466.648:   -377  89  11  664
1477483466.650:   -372  89  11  664
1477483466.651:   -391  89  11  664
1477483466.655:   -434  89  11  664
1477483466.711:   -463  89  11  664
1477483466.711:   -435  89  11  664
1477483466.711:   -348  89  11  664
1477483466.711:   -238  89  11  664
1477483466.711:   -135  89  11  664
1477483466.711:    -35  89  11  664
1477483466.712:     87  89  11  664
1477483466.712:    234  89  11  664
1477483466.712:    383  89  11  664
1477483466.712:    506  89  11  664
1477483466.712:    599  89  11  664
1477483466.712:    666  89  11  664
1477483466.712:    701  89  11  664
1477483466.713:    698  89  11  664
1477483466.713:    665  89  11  664
1477483466.713:    628  89  11  664
1477483466.713:    604  89  11  664
1477483466.713:    585  89  11  664
1477483466.713:    551  89  11  664
1477483466.713:    501  89  11  664
1477483466.714:    452  89  11  664
1477483466.714:    420  89  11  664
1477483466.714:    407  89  11  664
1477483466.714:    397  89  11  664
1477483466.714:    373  89  11  664
1477483466.714:    323  89  11  664
1477483466.714:    254  89  11  664
1477483466.715:    186  89  11  664
1477483466.715:    146  89  11  664
1477483466.715:    135  89  11  664
1477483466.717:    121  89  11  664
1477483466.717:     67  89  11  664
1477483466.719:    -26  89  11  664
1477483466.723:   -115  89  11  664
1477483466.723:   -161  89  11  664
1477483466.724:   -171  89  11  664
1477483466.727:   -185  89  11  664
1477483466.730:   -233  89  11  664
1477483466.736:   -299  89  11  664
1477483466.736:   -350  89  11  664
1477483466.736:   -368  89  11  664
1477483466.736:   -365  89  11  664
1477483466.737:   -353  89  11  664
1477483466.740:   -338  89  11  664
1477483466.744:   -323  89  11  664
1477483466.745:   -314  89  11  664
1477483466.755:   -312  89  11  664
1477483466.755:   -302  89  11  664
1477483466.755:   -272  89  11  664
1477483466.756:   -230  89  11  664
1477483466.756:   -199  89  11  664
1477483466.756:   -179  89  11  664
1477483466.757:   -149  89  11  664
1477483466.759:    -91  89  11  664
1477483466.762:    -20  89  11  664
1477483466.763:     45  89  11  664
1477483466.765:    111  89  11  664
1477483466.766:    220  89  11  664
1477483466.780:    404  89  11  664
1477483466.780:    650  89  11  664
1477483466.780:    915  89  11  664
1477483466.780:   1193  89  11  664
1477483466.780:   1537  89  11  664
1477483466.780:   2013  89  11  664
1477483466.781:   2636  89  11  664
1477483466.782:   3380  89  11  664
1477483466.785:   4226  89  11  664
1477483466.786:   5194  89  11  664
1477483466.790:   6290  89  11  664
1477483466.790:   7447  89  11  664
1477483466.799:   8517  89  11  664
1477483466.799:   9331  89  11  664
1477483466.799:   9737  89  11  664
1477483466.799:   9621  89  11  664
1477483466.825:   8925  89  11  664
1477483466.826:   7704  89  11  664
1477483466.838:   6147  89  11  664
1477483466.838:   4496  89  11  664
1477483466.839:   2915  89  11  664
1477483466.839:   1439  89  11  664
1477483466.839:     75  89  11  664
1477483466.839:  -1071  89  11  664
1477483466.839:  -1815  89  11  664
1477483466.839:  -2051  89  11  664
1477483466.839:  -1877  89  11  664
1477483466.839:  -1546  89  11  664
1477483466.840:  -1283  89  11  664
1477483466.840:  -1160  89  11  664
1477483466.840:  -1129  89  11  664
1477483466.840:  -1139  89  11  664
1477483466.840:  -1192  89  11  664
1477483466.840:  -1308  89  11  664
1477483466.840:  -1476  89  11  664
1477483466.840:  -1646  89  11  664
1477483466.841:  -1761  89  11  664
1477483466.842:  -1797  89  11  664
1477483466.845:  -1756  89  11  664
1477483466.846:  -1658  89  11  664
1477483466.847:  -1529  89  11  664
1477483466.849:  -1411  89  11  664
1477483466.860:  -1338  89  11  664
1477483466.860:  -1333  89  11  664
1477483466.860:  -1395  89  11  664
1477483466.860:  -1494  89  11  664
1477483466.860:  -1579  89  11  664
1477483466.861:  -1601  89  11  664
1477483466.862:  -1541  89  11  664
1477483466.865:  -1416  89  11  664
1477483466.867:  -1271  89  11  664
1477483466.868:  -1158  89  11  664
1477483466.880:  -1102  89  11  664
1477483466.880:  -1103  89  11  664
1477483466.880:  -1132  89  11  664
1477483466.881:  -1160  89  11  664
1477483466.881:  -1166  89  11  664
1477483466.882:  -1142  89  11  664
1477483466.884:  -1092  89  11  664
1477483466.885:  -1022  89  11  664
1477483466.886:   -945  89  11  664
1477483466.888:   -880  89  11  664
1477483466.891:   -840  89  11  664
1477483466.892:   -824  89  11  664
1477483466.901:   -815  89  11  664
1477483466.902:   -792  89  11  664
1477483466.902:   -748  89  11  664
1477483466.902:   -690  89  11  664
1477483466.902:   -633  89  11  664
1477483466.905:   -584  89  11  664
1477483466.906:   -543  89  11  664
1477483466.907:   -507  89  11  664
1477483466.914:   -474  89  11  664
1477483466.914:   -440  89  11  664
1477483466.922:   -403  89  11  664
1477483466.922:   -364  89  11  664
1477483466.922:   -325  89  11  664
1477483466.922:   -283  89  11  664
1477483466.922:   -230  89  11  664
1477483466.928:   -166  89  11  664
1477483466.928:    -95  89  11  664
1477483466.928:    -28  89  11  664
1477483466.930:     31  89  11  664
1477483466.932:     86  89  11  664
1477483466.945:    142  89  11  664
1477483466.945:    200  89  11  664
1477483466.945:    258  89  11  664
1477483466.946:    318  89  11  664
1477483466.946:    384  89  11  664
1477483466.946:    459  89  11  664
1477483466.946:    540  89  11  664
1477483466.947:    620  89  11  664
1477483466.948:    697  89  11  664
1477483466.954:    776  89  11  664
1477483466.965:    863  89  11  664
1477483466.965:    958  89  11  664
1477483466.966:   1055  89  11  664
1477483466.966:   1147  89  11  664
1477483466.966:   1232  89  11  664
1477483466.966:   1314  89  11  664
1477483466.967:   1397  89  11  664
1477483466.969:   1484  89  11  664
1477483466.970:   1574  89  11  664
1477483466.974:   1668  89  11  664
1477483466.985:   1766  89  11  664
1477483466.985:   1859  89  11  664
1477483466.985:   1941  89  11  664
1477483466.985:   2015  89  11  664
1477483466.985:   2094  89  11  664
1477483466.985:   2185  89  11  664
1477483466.986:   2281  89  11  664
1477483466.986:   2362  89  11  664
1477483466.989:   2422  89  11  664
1477483466.990:   2470  89  11  664
1477483466.995:   2526  89  11  664
1477483466.995:   2592  89  11  664
1477483467.005:   2654  89  11  664
1477483467.005:   2694  89  11  664
1477483467.005:   2712  89  11  664
1477483467.005:   2725  89  11  664
1477483467.005:   2741  89  11  664
1477483467.006:   2759  89  11  664
1477483467.008:   2765  89  11  666
1477483467.010:   2757  89  11  666
1477483467.014:   2739  89  11  666
1477483467.014:   2720  89  11  666
1477483467.016:   2698  89  11  666
1477483467.050:   2665  89  11  666
1477483467.060:   2614  89  11  666
1477483467.061:   2545  89  11  666
1477483467.061:   2462  89  11  666
1477483467.061:   2367  89  11  666
1477483467.061:   2257  89  11  666
1477483467.062:   2130  89  11  666
1477483467.062:   1987  89  11  666
1477483467.063:   1831  89  11  666
1477483467.063:   1663  89  11  666
1477483467.063:   1485  89  11  666
1477483467.063:   1301  89  11  666
1477483467.063:   1116  89  11  666
1477483467.063:    935  89  11  666
1477483467.064:    758  89  11  666
1477483467.064:    579  89  11  666
1477483467.064:    400  89  11  666
1477483467.064:    227  89  11  666
1477483467.064:     66  89  11  666
1477483467.064:    -90  89  11  666
1477483467.064:   -250  89  11  666
1477483467.064:   -413  89  11  666
1477483467.065:   -573  89  11  666
1477483467.065:   -718  89  11  666
1477483467.066:   -849  89  11  666
1477483467.069:   -972  89  11  666
1477483467.069:  -1089  89  11  666
1477483467.078:  -1190  89  11  666
1477483467.078:  -1270  89  11  666
1477483467.078:  -1330  89  11  666
1477483467.078:  -1381  89  11  666
1477483467.080:  -1429  89  11  666
1477483467.081:  -1470  89  11  666
1477483467.082:  -1500  89  11  666
1477483467.088:  -1524  89  11  666
1477483467.095:  -1551  89  11  666
1477483467.095:  -1584  89  11  666
1477483467.096:  -1615  89  11  666
1477483467.096:  -1634  89  11  666
1477483467.097:  -1643  89  11  666
1477483467.097:  -1651  89  11  666
1477483467.099:  -1664  89  11  666
1477483467.101:  -1677  89  11  666
1477483467.107:  -1675  89  11  666
1477483467.107:  -1654  89  11  666
1477483467.112:  -1626  89  11  666
1477483467.112:  -1608  89  11  666
1477483467.113:  -1604  89  11  666
1477483467.113:  -1598  89  11  666
1477483467.115:  -1575  89  11  666
1477483467.120:  -1540  89  11  666
1477483467.131:  -1509  89  11  666
1477483467.131:  -1494  89  11  666
1477483467.131:  -1486  89  11  666
1477483467.132:  -1467  89  11  666
1477483467.132:  -1431  89  11  666
1477483467.132:  -1391  89  11  666
1477483467.133:  -1361  89  11  666
1477483467.133:  -1339  89  11  666
1477483467.135:  -1314  89  11  666
1477483467.136:  -1280  89  11  666
1477483467.138:  -1246  89  11  666
1477483467.143:  -1222  89  11  666
1477483467.149:  -1208  89  11  666
1477483467.149:  -1194  89  11  666
1477483467.149:  -1174  89  11  666
1477483467.149:  -1153  89  11  666
1477483467.150:  -1139  89  11  666
1477483467.152:  -1133  89  11  666
1477483467.154:  -1128  89  11  666
1477483467.158:  -1119  89  11  666
1477483467.166:  -1105  89  11  666
1477483467.167:  -1092  89  11  666
1477483467.167:  -1083  89  11  666
1477483467.167:  -1074  89  11  666
1477483467.167:  -1062  89  11  666
1477483467.169:  -1048  89  11  666
1477483467.170:  -1032  89  11  666
1477483467.174:  -1016  89  11  666
1477483467.184:  -1001  89  11  666
1477483467.184:   -986  89  11  666
1477483467.184:   -972  89  11  666
1477483467.185:   -962  89  11  666
1477483467.185:   -953  89  11  666
1477483467.185:   -947  89  11  666
1477483467.188:   -945  89  11  666
1477483467.188:   -944  89  11  666
1477483467.190:   -941  89  11  666
1477483467.191:   -934  89  11  666
1477483467.201:   -927  89  11  666
1477483467.201:   -922  89  11  666
1477483467.201:   -921  89  11  666
1477483467.202:   -917  89  11  666
1477483467.202:   -907  89  11  666
1477483467.203:   -892  89  11  666
1477483467.205:   -880  89  11  666
1477483467.206:   -875  89  11  666
1477483467.208:   -872  89  11  666
1477483467.211:   -868  89  11  666
1477483467.216:   -864  89  11  666
1477483467.216:   -862  89  11  666
1477483467.226:   -858  89  11  666
1477483467.226:   -850  89  11  666
1477483467.227:   -838  89  11  666
1477483467.227:   -829  89  11  666
1477483467.227:   -828  89  11  666
1477483467.229:   -829  89  11  666
1477483467.230:   -825  89  11  666
1477483467.231:   -813  89  11  666
1477483467.233:   -798  89  11  666
1477483467.234:   -787  89  11  666
1477483467.244:   -779  89  11  666
1477483467.244:   -772  89  11  666
1477483467.244:   -762  89  11  666
1477483467.245:   -752  89  11  666
1477483467.246:   -744  89  11  666
1477483467.247:   -735  89  11  666
1477483467.248:   -725  89  11  666
1477483467.250:   -716  89  11  666
1477483467.252:   -709  89  11  666
1477483467.253:   -705  89  11  666
1477483467.262:   -700  89  11  666
1477483467.263:   -692  89  11  666
1477483467.263:   -683  89  11  666
1477483467.263:   -678  89  11  666
1477483467.264:   -676  89  11  666
1477483467.266:   -673  89  11  666
1477483467.270:   -670  89  11  666
1477483467.270:   -666  89  11  666
1477483467.279:   -666  89  11  666
1477483467.280:   -670  89  11  666
1477483467.280:   -672  89  11  666
1477483467.280:   -667  89  11  666
1477483467.280:   -652  89  11  666
1477483467.284:   -635  89  11  666
1477483467.284:   -623  89  11  666
1477483467.286:   -618  89  11  666
1477483467.287:   -617  89  11  666
1477483467.291:   -612  89  11  666
1477483467.297:   -601  89  11  666
1477483467.297:   -585  89  11  666
1477483467.298:   -566  89  11  666
1477483467.298:   -544  89  11  666
1477483467.300:   -526  89  11  666
1477483467.301:   -525  89  11  666
1477483467.302:   -548  89  11  666
1477483467.308:   -585  89  11  666
1477483467.361:   -611  89  11  666
1477483467.361:   -611  89  11  666
1477483467.361:   -603  89  11  666
1477483467.362:   -617  89  11  666
1477483467.362:   -660  89  11  666
1477483467.363:   -696  89  11  666
1477483467.363:   -677  89  11  666
1477483467.363:   -590  89  11  666
1477483467.363:   -463  89  11  666
1477483467.363:   -333  89  11  666
1477483467.363:   -207  89  11  666
1477483467.364:    -72  89  11  666
1477483467.364:     79  89  11  666
1477483467.364:    227  89  11  666
1477483467.364:    346  89  11  666
1477483467.364:    426  89  11  666
1477483467.364:    474  89  11  666
1477483467.364:    497  89  11  666
1477483467.365:    492  89  11  666
1477483467.365:    458  89  11  666
1477483467.365:    410  89  11  666
1477483467.365:    368  89  11  666
1477483467.365:    346  89  11  666
1477483467.365:    333  89  11  666
1477483467.377:    314  89  11  666
1477483467.378:    286  89  11  666
1477483467.378:    254  89  11  666
1477483467.378:    230  89  11  666
1477483467.378:    210  89  11  666
1477483467.379:    184  89  11  666
1477483467.379:    138  89  11  666
1477483467.379:     77  89  11  666
1477483467.379:     16  89  11  666
1477483467.379:    -25  89  11  666
1477483467.379:    -46  89  11  666
1477483467.380:    -62  89  11  666
1477483467.380:    -98  89  11  666
1477483467.381:   -158  89  11  666
1477483467.381:   -227  89  11  666
1477483467.385:   -281  89  11  666
1477483467.396:   -317  89  11  666
1477483467.396:   -351  89  11  666
1477483467.396:   -401  89  11  666
1477483467.396:   -463  89  11  666
1477483467.396:   -518  89  11  666
1477483467.396:   -546  89  11  666
1477483467.399:   -544  89  11  666
1477483467.400:   -522  89  11  666
1477483467.401:   -492  89  11  666
1477483467.402:   -466  89  11  666
1477483467.406:   -450  89  11  666
1477483467.406:   -442  89  11  666
1477483467.409:   -433  89  11  666
1477483467.413:   -417  89  11  666
1477483467.417:   -393  89  11  666
1477483467.417:   -369  89  11  666
1477483467.417:   -347  89  11  666
1477483467.419:   -320  89  11  666
1477483467.421:   -277  89  11  666
1477483467.422:   -214  89  11  666
1477483467.427:   -142  89  11  666
1477483467.427:    -56  89  11  666
1477483467.436:     63  89  11  666
1477483467.436:    234  89  11  666
1477483467.436:    460  89  11  666
1477483467.436:    716  89  11  666
1477483467.437:    982  89  11  666
1477483467.440:   1273  89  11  666
1477483467.441:   1635  89  11  666
1477483467.442:   2109  89  11  666
1477483467.444:   2700  89  11  666
1477483467.446:   3393  89  11  666
1477483467.455:   4188  89  11  666
1477483467.455:   5108  89  11  666
1477483467.455:   6163  89  11  666
1477483467.455:   7301  89  11  666
1477483467.456:   8395  89  11  666
1477483467.458:   9270  89  11  666
1477483467.460:   9745  89  11  666
1477483467.461:   9675  89  11  666
1477483467.463:   9000  89  11  666
1477483467.468:   7793  89  11  666
1477483467.478:   6253  89  11  666
1477483467.478:   4600  89  11  666
1477483467.479:   2975  89  11  666
1477483467.479:   1413  89  11  666
1477483467.479:    -48  89  11  666
1477483467.479:  -1272  89  11  666
1477483467.482:  -2067  89  11  666
1477483467.482:  -2334  89  11  666
1477483467.483:  -2175  89  11  666
1477483467.486:  -1835  89  11  666
1477483467.487:  -1534  89  11  666
1477483467.490:  -1358  89  11  666
1477483467.491:  -1285  89  11  666
1477483467.495:  -1274  89  11  666
1477483467.502:  -1321  89  11  666
1477483467.502:  -1432  89  11  666
1477483467.503:  -1591  89  11  666
1477483467.503:  -1761  89  11  666
1477483467.503:  -1896  89  11  666
1477483467.509:  -1968  89  11  666
1477483467.509:  -1959  89  11  666
1477483467.509:  -1864  89  11  666
1477483467.511:  -1711  89  11  666
1477483467.513:  -1556  89  11  666
1477483467.523:  -1457  89  11  666
1477483467.523:  -1446  89  11  666
1477483467.523:  -1510  89  11  666
1477483467.524:  -1605  89  11  666
1477483467.524:  -1678  89  11  666
1477483467.527:  -1692  89  11  666
1477483467.527:  -1638  89  11  666
1477483467.529:  -1529  89  11  666
1477483467.531:  -1402  89  11  666
1477483467.532:  -1292  89  11  666
1477483467.535:  -1226  89  11  666
1477483467.536:  -1208  89  11  666
1477483467.546:  -1223  89  11  666
1477483467.546:  -1247  89  11  666
1477483467.546:  -1260  89  11  666
1477483467.546:  -1245  89  11  666
1477483467.549:  -1196  89  11  666
1477483467.549:  -1120  89  11  666
1477483467.551:  -1037  89  11  666
1477483467.552:   -968  89  11  666
1477483467.555:   -924  89  11  666
1477483467.556:   -900  89  11  666
1477483467.558:   -881  89  11  666
1477483467.560:   -856  89  11  666
1477483467.568:   -824  89  11  666
1477483467.569:   -784  89  11  666
1477483467.569:   -735  89  11  666
1477483467.569:   -679  89  11  666
1477483467.570:   -622  89  11  666
1477483467.573:   -572  89  11  666
1477483467.573:   -531  89  11  666
1477483467.576:   -494  89  11  666
1477483467.578:   -454  89  11  666
1477483467.582:   -412  89  11  666
1477483467.590:   -369  89  11  666
1477483467.590:   -325  89  11  666
1477483467.590:   -274  89  11  666
1477483467.591:   -213  89  11  666
1477483467.591:   -151  89  11  666
1477483467.592:    -95  89  11  666
1477483467.594:    -45  89  11  666
1477483467.595:      8  89  11  666
1477483467.599:     73  89  11  666
1477483467.600:    144  89  11  666
1477483467.609:    211  89  11  666
1477483467.609:    269  89  11  666
1477483467.609:    327  89  11  666
1477483467.610:    394  89  11  666
1477483467.610:    471  89  11  666
1477483467.612:    551  89  11  666
1477483467.614:    628  89  11  666
1477483467.615:    700  89  11  666
1477483467.617:    772  89  11  666
1477483467.619:    846  89  11  666
1477483467.625:    925  89  11  666
1477483467.625:   1007  89  11  666
1477483467.626:   1092  89  11  666
1477483467.627:   1176  89  11  666
1477483467.633:   1254  89  11  666
1477483467.633:   1332  89  11  666
1477483467.643:   1418  89  11  666
1477483467.644:   1511  89  11  666
1477483467.644:   1605  89  11  666
1477483467.644:   1694  89  11  666
1477483467.644:   1777  89  11  666
1477483467.645:   1864  89  11  666
1477483467.645:   1954  89  11  666
1477483467.647:   2041  89  11  666
1477483467.648:   2116  89  11  666
1477483467.650:   2180  89  11  666
1477483467.652:   2243  89  11  666
1477483467.654:   2308  89  11  666
1477483467.660:   2370  89  11  666
1477483467.661:   2419  89  11  666
1477483467.661:   2457  89  11  666
1477483467.662:   2492  89  11  666
1477483467.663:   2528  89  11  666
1477483467.666:   2560  89  11  666
1477483467.668:   2580  89  11  666
1477483467.673:   2586  89  11  666
1477483467.678:   2584  89  11  666
1477483467.678:   2579  89  11  666
1477483467.678:   2569  89  11  666
1477483467.678:   2547  89  11  666
1477483467.680:   2508  89  11  666
1477483467.682:   2455  89  11  666
1477483467.686:   2391  89  11  666
1477483467.687:   2317  89  11  666
1477483467.696:   2231  89  11  666
1477483467.696:   2130  89  11  666
1477483467.696:   2011  89  11  666
1477483467.696:   1878  89  11  666
1477483467.697:   1732  89  11  666
1477483467.700:   1578  89  11  666
1477483467.701:   1419  89  11  666
1477483467.702:   1252  89  11  666
1477483467.716:   1077  89  11  666
1477483467.716:    895  89  11  666
1477483467.716:    711  89  11  666
1477483467.716:    529  89  11  666
1477483467.716:    355  89  11  666
1477483467.716:    188  89  11  666
1477483467.717:     27  88  11  677
1477483467.717:   -132  88  11  677
1477483467.719:   -288  88  11  677
1477483467.721:   -434  88  11  677
1477483467.723:   -568  88  11  677
1477483467.728:   -691  88  11  677
1477483467.735:   -805  88  11  677
1477483467.736:   -915  88  11  677
1477483467.736:  -1016  88  11  677
1477483467.736:  -1102  88  11  677
1477483467.737:  -1177  88  11  677
1477483467.739:  -1248  88  11  677
1477483467.741:  -1317  88  11  677
1477483467.742:  -1377  88  11  677
1477483467.744:  -1420  88  11  677
1477483467.745:  -1447  88  11  677
1477483467.746:  -1472  88  11  677
1477483467.748:  -1502  88  11  677
1477483467.759:  -1528  88  11  677
1477483467.759:  -1540  88  11  677
1477483467.760:  -1537  88  11  677
1477483467.760:  -1529  88  11  677
1477483467.761:  -1525  88  11  677
1477483467.762:  -1528  88  11  677
1477483467.762:  -1529  88  11  677
1477483467.765:  -1525  88  11  677
1477483467.777:  -1514  88  11  677
1477483467.777:  -1502  88  11  677
1477483467.778:  -1491  88  11  677
1477483467.779:  -1483  88  11  677
1477483467.779:  -1477  88  11  677
1477483467.781:  -1468  88  11  677
1477483467.782:  -1451  88  11  677
1477483467.783:  -1426  88  11  677
1477483467.795:  -1400  88  11  677
1477483467.795:  -1379  88  11  677
1477483467.796:  -1363  88  11  677
1477483467.796:  -1347  88  11  677
1477483467.796:  -1323  88  11  677
1477483467.797:  -1292  88  11  677
1477483467.798:  -1257  88  11  677
1477483467.799:  -1225  88  11  677
1477483467.799:  -1200  88  11  677
1477483467.800:  -1183  88  11  677
1477483467.801:  -1168  88  11  677
1477483467.804:  -1151  88  11  677
1477483467.812:  -1128  88  11  677
1477483467.812:  -1102  88  11  677
1477483467.812:  -1082  88  11  677
1477483467.812:  -1072  88  11  677
1477483467.814:  -1068  88  11  677
1477483467.815:  -1061  88  11  677
1477483467.817:  -1046  88  11  677
1477483467.819:  -1027  88  11  677
1477483467.824:  -1014  88  11  677
1477483467.825:  -1009  88  11  677
1477483467.832:  -1005  88  11  677
1477483467.833:   -995  88  11  677
1477483467.838:   -980  88  11  677
1477483467.839:   -967  88  11  677
1477483467.839:   -956  88  11  677
1477483467.840:   -944  88  11  677
1477483467.852:   -930  88  11  677
1477483467.852:   -917  88  11  677
1477483467.853:   -913  88  11  677
1477483467.853:   -915  88  11  677
1477483467.853:   -918  88  11  677
1477483467.853:   -915  88  11  677
1477483467.853:   -910  88  11  677
1477483467.854:   -906  88  11  677
1477483467.854:   -905  88  11  677
1477483467.857:   -905  88  11  677
1477483467.859:   -901  88  11  677
1477483467.859:   -893  88  11  677
1477483467.868:   -884  88  11  677
1477483467.868:   -873  88  11  677
1477483467.869:   -863  88  11  677
1477483467.869:   -855  88  11  677
1477483467.870:   -853  88  11  677
1477483467.871:   -854  88  11  677
1477483467.872:   -855  88  11  677
1477483467.873:   -852  88  11  677
1477483467.876:   -842  88  11  677
1477483467.879:   -830  88  11  677
1477483467.886:   -823  88  11  677
1477483467.887:   -822  88  11  677
1477483467.887:   -825  88  11  677
1477483467.887:   -824  88  11  677
1477483467.889:   -814  88  11  677
1477483467.893:   -803  88  11  677
1477483467.894:   -799  88  11  677
1477483467.896:   -805  88  11  677
1477483467.897:   -814  88  11  677
1477483467.898:   -815  88  11  677
1477483467.900:   -804  88  11  677
1477483467.901:   -787  88  11  677
1477483467.904:   -772  88  11  677
1477483467.906:   -764  88  11  677
1477483467.907:   -762  88  11  677
1477483467.915:   -761  88  11  677
1477483467.921:   -755  88  11  677
1477483467.922:   -741  88  11  677
1477483467.923:   -724  88  11  677
1477483467.924:   -711  88  11  677
1477483467.924:   -707  88  11  677
1477483467.925:   -709  88  11  677
1477483467.926:   -706  88  11  677
1477483467.927:   -697  88  11  677
1477483467.928:   -686  88  11  677
1477483467.929:   -678  88  11  677
1477483467.941:   -676  88  11  677
1477483467.942:   -674  88  11  677
1477483467.942:   -668  88  11  677
1477483467.943:   -659  88  11  677
1477483467.944:   -652  88  11  677
1477483467.945:   -645  88  11  677
1477483467.947:   -635  88  11  677
1477483467.949:   -622  88  11  677
1477483467.949:   -609  88  11  677
1477483467.950:   -598  88  11  677
1477483467.956:   -588  88  11  677
1477483467.957:   -577  88  11  677
1477483467.957:   -564  88  11  677
1477483467.960:   -550  88  11  677
1477483467.961:   -540  88  11  677
1477483467.961:   -533  88  11  677
1477483467.978:   -530  88  11  677
1477483467.978:   -529  88  11  677
1477483467.979:   -525  88  11  677
1477483467.979:   -517  88  11  677
1477483467.979:   -508  88  11  677
1477483467.980:   -501  88  11  677
1477483467.980:   -498  88  11  677
1477483467.981:   -498  88  11  677
1477483467.981:   -495  88  11  677
1477483467.983:   -488  88  11  677
1477483467.985:   -478  88  11  677
1477483467.986:   -467  88  11  677
1477483467.996:   -456  88  11  677
1477483467.996:   -448  88  11  677
1477483467.997:   -440  88  11  677
1477483467.997:   -433  88  11  677
1477483467.997:   -426  88  11  677
1477483467.997:   -418  88  11  677
1477483468.000:   -405  88  11  677
1477483468.002:   -384  88  11  677
1477483468.004:   -362  88  11  677
1477483468.011:   -353  88  11  677
1477483468.015:   -372  88  11  677
1477483468.016:   -415  88  11  677
1477483468.100:   -459  88  11  677
1477483468.100:   -482  88  11  677
1477483468.100:   -484  88  11  677
1477483468.100:   -492  88  11  677
1477483468.100:   -524  88  11  677
1477483468.100:   -564  88  11  677
1477483468.101:   -573  88  11  677
1477483468.101:   -519  88  11  677
1477483468.101:   -407  88  11  677
1477483468.102:   -267  88  11  677
1477483468.102:   -123  88  11  677
1477483468.102:     18  88  11  677
1477483468.102:    161  88  11  677
1477483468.102:    301  88  11  677
1477483468.103:    427  88  11  677
1477483468.103:    525  88  11  677
1477483468.104:    590  88  11  677
1477483468.104:    621  88  11  677
1477483468.104:    618  88  11  677
1477483468.104:    586  88  11  677
1477483468.104:    541  88  11  677
1477483468.104:    497  88  11  677
1477483468.104:    466  88  11  677
1477483468.105:    449  88  11  677
1477483468.105:    441  88  11  677
1477483468.105:    433  88  11  677
1477483468.105:    415  88  11  677
1477483468.105:    382  88  11  677
1477483468.105:    341  88  11  677
1477483468.105:    306  88  11  677
1477483468.105:    277  88  11  677
1477483468.106:    236  88  11  677
1477483468.106:    169  88  11  677
1477483468.106:     90  88  11  677
1477483468.106:     33  88  11  677
1477483468.106:     16  88  11  677
1477483468.106:     15  88  11  677
1477483468.108:    -13  88  11  677
1477483468.113:    -79  88  11  677
1477483468.113:   -154  88  11  677
1477483468.113:   -199  88  11  677
1477483468.114:   -215  88  11  677
1477483468.114:   -235  88  11  677
1477483468.114:   -285  88  11  677
1477483468.114:   -354  88  11  677
1477483468.115:   -410  88  11  677
1477483468.115:   -431  88  11  677
1477483468.116:   -424  88  11  677
1477483468.116:   -404  88  11  677
1477483468.116:   -383  88  11  677
1477483468.116:   -368  88  11  677
1477483468.116:   -358  88  11  677
1477483468.116:   -349  88  11  677
1477483468.119:   -336  88  11  677
1477483468.122:   -319  88  11  677
1477483468.124:   -302  88  11  677
1477483468.138:   -280  88  11  677
1477483468.138:   -248  88  11  677
1477483468.139:   -198  88  11  677
1477483468.139:   -134  88  11  677
1477483468.139:    -63  88  11  677
1477483468.140:     32  88  11  677
1477483468.140:    176  88  11  677
1477483468.141:    381  88  11  677
1477483468.141:    627  88  11  677
1477483468.141:    881  88  11  677
1477483468.141:   1135  88  11  677
1477483468.145:   1420  88  11  677
1477483468.145:   1778  88  11  677
1477483468.146:   2231  88  11  677
1477483468.160:   2779  88  11  677
1477483468.160:   3430  88  11  677
1477483468.161:   4215  88  11  677
1477483468.161:   5162  88  11  677
1477483468.161:   6253  88  11  677
1477483468.162:   7410  88  11  677
1477483468.162:   8501  88  11  677
1477483468.164:   9364  88  11  677
1477483468.165:   9816  88  11  677
1477483468.169:   9698  88  11  677
1477483468.180:   8954  88  11  677
1477483468.181:   7687  88  11  677
1477483468.182:   6127  88  11  677
1477483468.182:   4493  88  11  677
1477483468.183:   2886  88  11  677
1477483468.188:   1321  88  11  677
1477483468.203:   -144  88  11  677
1477483468.204:  -1330  88  11  677
1477483468.205:  -2034  88  11  677
1477483468.206:  -2197  88  11  677
1477483468.207:  -1980  88  11  677
1477483468.207:  -1645  88  11  677
1477483468.210:  -1384  88  11  677
1477483468.211:  -1243  88  11  677
1477483468.212:  -1179  88  11  677
1477483468.213:  -1165  88  11  677
1477483468.214:  -1220  88  11  677
1477483468.214:  -1351  88  11  677
1477483468.215:  -1534  88  11  677
1477483468.215:  -1715  88  11  677
1477483468.216:  -1844  88  11  677
1477483468.216:  -1894  88  11  677
1477483468.216:  -1862  88  11  677
1477483468.216:  -1759  88  11  677
1477483468.217:  -1617  88  11  677
1477483468.217:  -1484  88  11  677
1477483468.217:  -1407  88  11  677
1477483468.222:  -1412  88  11  677
1477483468.239:  -1494  88  11  677
1477483468.239:  -1610  88  11  677
1477483468.240:  -1696  88  11  677
1477483468.241:  -1701  88  11  677
1477483468.242:  -1620  88  11  677
1477483468.242:  -1490  88  11  677
1477483468.243:  -1360  88  11  677
1477483468.244:  -1261  88  11  677
1477483468.245:  -1203  88  11  677
1477483468.245:  -1183  88  11  677
1477483468.246:  -1197  88  11  677
1477483468.246:  -1226  88  11  677
1477483468.261:  -1242  88  11  677
1477483468.261:  -1218  88  11  677
1477483468.262:  -1151  88  11  677
1477483468.263:  -1066  88  11  677
1477483468.264:   -992  88  11  677
1477483468.264:   -941  88  11  677
1477483468.264:   -904  88  11  677
1477483468.264:   -870  88  11  677
1477483468.264:   -840  88  11  677
1477483468.264:   -816  88  11  677
1477483468.268:   -793  88  11  677
1477483468.268:   -762  88  11  677
1477483468.270:   -716  88  11  677
1477483468.271:   -660  88  11  677
1477483468.280:   -606  88  11  677
1477483468.280:   -558  88  11  677
1477483468.280:   -515  88  11  677
1477483468.282:   -470  88  11  677
1477483468.282:   -424  88  11  677
1477483468.284:   -380  88  11  677
1477483468.285:   -337  88  11  677
1477483468.288:   -288  88  11  677
1477483468.292:   -229  88  11  677
1477483468.292:   -164  88  11  677
1477483468.299:   -101  88  11  677
1477483468.299:    -44  88  11  677
1477483468.303:     10  88  11  677
1477483468.304:     65  88  11  677
1477483468.305:    121  88  11  677
1477483468.305:    178  88  11  677
1477483468.306:    236  88  11  677
1477483468.309:    295  88  11  677
1477483468.318:    357  88  11  677
1477483468.318:    423  88  11  677
1477483468.318:    496  88  11  677
1477483468.318:    577  88  11  677
1477483468.318:    661  88  11  677
1477483468.319:    738  88  11  677
1477483468.324:    807  88  11  677
1477483468.324:    880  88  11  677
1477483468.325:    968  88  11  677
1477483468.326:   1066  88  11  677
1477483468.327:   1154  88  11  677
1477483468.330:   1221  88  11  677
1477483468.337:   1285  88  11  677
1477483468.337:   1370  88  11  677
1477483468.338:   1479  88  11  677
1477483468.339:   1586  88  11  677
1477483468.340:   1667  88  11  677
1477483468.341:   1729  88  11  677
1477483468.344:   1801  88  11  677
1477483468.346:   1896  88  11  677
1477483468.350:   1999  88  11  677
1477483468.350:   2085  88  11  677
1477483468.352:   2150  88  11  677
1477483468.353:   2210  88  11  677
1477483468.363:   2279  88  11  677
1477483468.363:   2351  88  11  677
1477483468.364:   2411  88  11  677
1477483468.364:   2454  88  11  677
1477483468.365:   2489  88  11  677
1477483468.366:   2527  88  11  677
1477483468.369:   2568  88  11  677
1477483468.369:   2602  88  11  677
1477483468.372:   2622  88  11  677
1477483468.374:   2631  88  11  677
1477483468.383:   2635  88  11  677
1477483468.383:   2639  88  11  677
1477483468.383:   2637  89  11  678
1477483468.383:   2622  89  11  678
1477483468.383:   2591  89  11  678
1477483468.385:   2548  89  11  678
1477483468.386:   2499  89  11  678
1477483468.389:   2443  89  11  678
1477483468.391:   2376  89  11  678
1477483468.394:   2291  89  11  678
1477483468.398:   2187  89  11  678
1477483468.400:   2069  89  11  678
1477483468.401:   1943  89  11  678
1477483468.402:   1811  89  11  678
1477483468.403:   1668  89  11  678
1477483468.406:   1507  89  11  678
1477483468.407:   1330  89  11  678
1477483468.411:   1148  89  11  678
1477483468.412:    972  89  11  678
1477483468.413:    801  89  11  678
1477483468.416:    626  89  11  678
1477483468.417:    444  89  11  678
1477483468.421:    263  89  11  678
1477483468.421:     96  89  11  678
1477483468.437:    -54  89  11  678
1477483468.437:   -198  89  11  678
1477483468.437:   -346  89  11  678
1477483468.437:   -496  89  11  678
1477483468.437:   -636  89  11  678
1477483468.437:   -761  89  11  678
1477483468.437:   -872  89  11  678
1477483468.438:   -976  89  11  678
1477483468.438:  -1075  89  11  678
1477483468.442:  -1166  89  11  678
1477483468.442:  -1246  89  11  678
1477483468.443:  -1314  89  11  678
1477483468.446:  -1371  89  11  678
1477483468.447:  -1419  89  11  678
1477483468.458:  -1461  89  11  678
1477483468.458:  -1498  89  11  678
1477483468.458:  -1528  89  11  678
1477483468.458:  -1551  89  11  678
1477483468.458:  -1566  89  11  678
1477483468.460:  -1575  89  11  678
1477483468.461:  -1579  89  11  678
1477483468.466:  -1578  89  11  678
1477483468.470:  -1575  89  11  678
1477483468.471:  -1571  89  11  678
1477483468.472:  -1566  89  11  678
1477483468.475:  -1559  89  11  678
1477483468.477:  -1547  89  11  678
1477483468.478:  -1533  89  11  678
1477483468.480:  -1520  89  11  678
1477483468.481:  -1507  89  11  678
1477483468.496:  -1488  89  11  678
1477483468.498:  -1464  89  11  678
1477483468.498:  -1439  89  11  678
1477483468.498:  -1420  89  11  678
1477483468.499:  -1406  89  11  678
1477483468.500:  -1391  89  11  678
1477483468.514:  -1368  89  11  678
1477483468.514:  -1340  89  11  678
1477483468.514:  -1314  89  11  678
1477483468.514:  -1291  89  11  678
1477483468.514:  -1268  89  11  678
1477483468.514:  -1245  89  11  678
1477483468.515:  -1224  89  11  678
1477483468.515:  -1207  89  11  678
1477483468.515:  -1189  89  11  678
1477483468.515:  -1167  89  11  678
1477483468.515:  -1145  89  11  678
1477483468.517:  -1130  89  11  678
1477483468.519:  -1122  89  11  678
1477483468.522:  -1109  89  11  678
1477483468.532:  -1087  89  11  678
1477483468.534:  -1063  89  11  678
1477483468.534:  -1050  89  11  678
1477483468.535:  -1048  89  11  678
1477483468.535:  -1042  89  11  678
1477483468.535:  -1020  89  11  678
1477483468.536:   -990  89  11  678
1477483468.536:   -969  89  11  678
1477483468.539:   -963  89  11  678
1477483468.539:   -965  89  11  678
1477483468.550:   -961  89  11  678
1477483468.550:   -952  89  11  678
1477483468.551:   -942  89  11  678
1477483468.552:   -938  89  11  678
1477483468.553:   -939  89  11  678
1477483468.554:   -942  89  11  678
1477483468.555:   -943  89  11  678
1477483468.555:   -941  89  11  678
1477483468.555:   -933  89  11  678
1477483468.557:   -923  89  11  678
1477483468.560:   -914  89  11  678
1477483468.561:   -911  89  11  678
1477483468.566:   -914  89  11  678
1477483468.566:   -914  89  11  678
1477483468.567:   -911  89  11  678
1477483468.569:   -907  89  11  678
1477483468.572:   -906  89  11  678
1477483468.575:   -908  89  11  678
1477483468.575:   -909  89  11  678
1477483468.581:   -906  89  11  678
1477483468.595:   -898  89  11  678
1477483468.597:   -890  89  11  678
1477483468.598:   -884  89  11  678
1477483468.599:   -882  89  11  678
1477483468.599:   -881  89  11  678
1477483468.601:   -879  89  11  678
1477483468.601:   -875  89  11  678
1477483468.602:   -872  89  11  678
1477483468.614:   -869  89  11  678
1477483468.614:   -865  89  11  678
1477483468.614:   -856  89  11  678
1477483468.615:   -845  89  11  678
1477483468.615:   -838  89  11  678
1477483468.616:   -835  89  11  678
1477483468.616:   -830  89  11  678
1477483468.616:   -819  89  11  678
1477483468.616:   -804  89  11  678
1477483468.616:   -792  89  11  678
1477483468.617:   -784  89  11  678
1477483468.618:   -776  89  11  678
1477483468.620:   -764  89  11  678
1477483468.621:   -755  89  11  678
1477483468.626:   -754  89  11  678
1477483468.627:   -756  89  11  678
1477483468.633:   -749  89  11  678
1477483468.633:   -728  89  11  678
1477483468.634:   -708  89  11  678
1477483468.634:   -703  89  11  678
1477483468.634:   -712  89  11  678
1477483468.640:   -719  89  11  678
1477483468.640:   -709  89  11  678
1477483468.641:   -683  89  11  678
1477483468.643:   -661  89  11  678
1477483468.643:   -654  89  11  678
1477483468.646:   -659  89  11  678
1477483468.647:   -664  89  11  678
1477483468.653:   -658  89  11  678
1477483468.653:   -645  89  11  678
1477483468.667:   -634  89  11  678
1477483468.667:   -630  89  11  678
1477483468.667:   -632  89  11  678
1477483468.667:   -633  89  11  678
1477483468.668:   -632  89  11  678
1477483468.668:   -627  89  11  678
1477483468.668:   -615  89  11  678
1477483468.672:   -599  89  11  678
1477483468.672:   -581  89  11  678
1477483468.673:   -565  89  11  678
1477483468.674:   -549  89  11  678
1477483468.675:   -532  89  11  678
1477483468.681:   -511  89  11  678
1477483468.682:   -493  89  11  678
1477483468.685:   -485  89  11  678
1477483468.746:   -486  89  11  678
1477483468.747:   -486  89  11  678
1477483468.747:   -479  89  11  678
1477483468.748:   -471  89  11  678
1477483468.748:   -468  89  11  678
1477483468.749:   -470  89  11  678
1477483468.749:   -466  89  11  678
1477483468.750:   -452  89  11  678
1477483468.750:   -437  89  11  678
1477483468.765:   -434  89  11  678
1477483468.765:   -440  89  11  678
1477483468.765:   -443  89  11  678
1477483468.765:   -434  89  11  678
1477483468.765:   -420  89  11  678
1477483468.765:   -415  89  11  678
1477483468.765:   -418  89  11  678
1477483468.766:   -419  89  11  678
1477483468.766:   -411  89  11  678
1477483468.766:   -400  89  11  678
1477483468.766:   -395  89  11  678
1477483468.766:   -397  89  11  678
1477483468.766:   -394  89  11  678
1477483468.766:   -377  89  11  678
1477483468.767:   -349  89  11  678
1477483468.767:   -323  89  11  678
1477483468.767:   -310  89  11  678
1477483468.767:   -311  89  11  678
1477483468.767:   -328  89  11  678
1477483468.767:   -356  89  11  678
1477483468.767:   -382  89  11  678
1477483468.767:   -396  89  11  678
1477483468.768:   -400  89  11  678
1477483468.768:   -410  89  11  678
1477483468.768:   -439  89  11  678
1477483468.768:   -471  89  11  678
1477483468.768:   -466  89  11  678
1477483468.769:   -393  89  11  678
1477483468.769:   -263  89  11  678
1477483468.769:   -116  89  11  678
1477483468.769:     19  89  11  678
1477483468.769:    146  89  11  678
1477483468.769:    284  89  11  678
1477483468.770:    434  89  11  678
1477483468.770:    569  89  11  678
1477483468.772:    659  89  11  678
1477483468.773:    703  89  11  678
1477483468.774:    714  89  11  678
1477483468.777:    702  89  11  678
1477483468.781:    665  89  11  678
1477483468.781:    610  89  11  678
1477483468.783:    559  89  11  678
1477483468.784:    532  89  11  678
1477483468.785:    524  89  11  678
1477483468.787:    508  89  11  678
1477483468.790:    471  89  11  678
1477483468.812:    426  89  11  678
1477483468.812:    398  89  11  678
1477483468.812:    388  89  11  678
1477483468.812:    372  89  11  678
1477483468.812:    323  89  11  678
1477483468.813:    243  89  11  678
1477483468.813:    160  89  11  678
1477483468.813:    101  89  11  678
1477483468.813:     71  89  11  678
1477483468.814:     53  89  11  678
1477483468.814:     22  89  11  678
1477483468.815:    -32  89  11  678
1477483468.815:    -96  89  11  678
1477483468.817:   -146  89  11  678
1477483468.822:   -169  89  11  678
1477483468.824:   -180  89  11  678
1477483468.824:   -205  89  11  678
1477483468.826:   -259  89  11  678
1477483468.826:   -329  89  11  678
1477483468.829:   -383  89  11  678
1477483468.831:   -401  89  11  678
1477483468.835:   -388  89  11  678
1477483468.852:   -364  89  11  678
1477483468.852:   -346  89  11  678
1477483468.853:   -335  89  11  678
1477483468.854:   -318  89  11  678
1477483468.855:   -290  89  11  678
1477483468.855:   -255  89  11  678
1477483468.856:   -221  89  11  678
1477483468.857:   -187  89  11  678
1477483468.857:   -148  89  11  678
1477483468.858:    -96  89  11  678
1477483468.858:    -35  89  11  678
1477483468.859:     29  89  11  678
1477483468.860:    116  89  11  678
1477483468.864:    249  89  11  678
1477483468.865:    438  89  11  678
1477483468.865:    661  89  11  678
1477483468.868:    889  89  11  678
1477483468.869:   1122  89  11  678
1477483468.870:   1397  89  11  678
1477483468.874:   1754  89  11  678
1477483468.887:   2200  89  11  678
1477483468.887:   2727  89  11  678
1477483468.887:   3353  89  11  678
1477483468.887:   4127  89  11  678
1477483468.887:   5081  89  11  678
1477483468.888:   6179  89  11  678
1477483468.888:   7324  89  11  678
1477483468.888:   8383  89  11  678
1477483468.891:   9208  89  11  678
1477483468.891:   9625  89  11  678
1477483468.896:   9474  89  11  678
1477483468.896:   8702  89  11  678
1477483468.904:   7434  89  11  678
1477483468.904:   5917  89  11  678
1477483468.910:   4357  89  11  678
1477483468.910:   2822  89  11  678
1477483468.911:   1304  89  11  678
1477483468.911:   -128  89  11  678
1477483468.911:  -1272  89  11  678
1477483468.911:  -1925  89  11  678
1477483468.914:  -2055  89  11  678
1477483468.915:  -1848  89  11  678
1477483468.919:  -1557  89  11  678
1477483468.920:  -1340  89  11  678
1477483468.923:  -1223  89  11  678
1477483468.923:  -1170  89  11  678
1477483468.934:  -1173  89  11  678
1477483468.934:  -1249  89  11  678
1477483468.935:  -1389  89  11  678
1477483468.935:  -1556  89  11  678
1477483468.935:  -1703  89  11  678
1477483468.937:  -1802  89  11  678
1477483468.937:  -1842  89  11  678
1477483468.939:  -1814  89  11  678
1477483468.940:  -1714  89  11  678
1477483468.943:  -1566  89  11  678
1477483468.945:  -1427  89  11  678
1477483468.947:  -1354  89  11  678
1477483468.957:  -1374  89  11  678
1477483468.957:  -1464  89  11  678
1477483468.957:  -1571  89  11  678
1477483468.958:  -1637  89  11  678
1477483468.959:  -1627  89  11  678
1477483468.959:  -1542  89  11  678
1477483468.962:  -1410  89  11  678
1477483468.966:  -1275  89  11  678
1477483468.967:  -1178  89  11  678
1477483468.970:  -1137  89  11  678
1477483468.970:  -1147  89  11  678
1477483468.971:  -1182  89  11  678
1477483468.973:  -1211  89  11  678
1477483468.974:  -1212  89  11  678
1477483468.982:  -1177  89  11  678
1477483468.982:  -1112  89  11  678
1477483468.983:  -1033  89  11  678
1477483468.983:   -958  89  11  678
1477483468.999:   -900  89  11  678
1477483469.000:   -865  89  11  678
1477483469.004:   -849  89  11  678
1477483469.005:   -836  89  11  678
1477483469.006:   -812  89  11  678
1477483469.006:   -771  89  11  678
1477483469.017:   -718  89  11  678
1477483469.017:   -664  89  11  678
1477483469.017:   -616  89  11  678
1477483469.018:   -571  89  11  678
1477483469.018:   -522  89  11  678
1477483469.018:   -472  89  11  678
1477483469.018:   -425  89  11  678
1477483469.018:   -386  89  11  678
1477483469.018:   -349  89  11  678
1477483469.018:   -306  89  11  678
1477483469.020:   -252  89  11  678
1477483469.021:   -190  89  11  678
1477483469.021:   -128  89  11  678
1477483469.023:    -70  89  11  678
1477483469.028:    -17  89  11  678
1477483469.029:     34  89  11  678
1477483469.030:     86  89  11  678
1477483469.060:    137  89  11  678
1477483469.064:    188  89  11  678
1477483469.064:    239  89  11  678
1477483469.064:    293  89  11  678
1477483469.064:    352  89  11  678
1477483469.064:    417  89  11  678
1477483469.065:    489  89  11  678
1477483469.065:    565  89  11  678
1477483469.065:    641  89  11  678
1477483469.066:    720  89  11  678
1477483469.068:    805  89  11  678
1477483469.068:    895  89  11  678
1477483469.069:    986  89  11  678
1477483469.069:   1071  89  11  678
1477483469.070:   1146  89  11  678
1477483469.071:   1218  89  11  678
1477483469.072:   1297  89  11  678
1477483469.072:   1383  89  11  678
1477483469.073:   1469  89  11  678
1477483469.074:   1544  89  11  678
1477483469.075:   1610  89  11  678
1477483469.088:   1681  89  11  678
1477483469.089:   1764  89  11  678
1477483469.089:   1853  89  11  678
1477483469.090:   1936  89  11  678
1477483469.091:   2010  89  11  678
1477483469.092:   2082  89  11  678
1477483469.094:   2161  88  11  678
1477483469.099:   2243  88  11  678
1477483469.112:   2316  88  11  678
1477483469.112:   2375  88  11  678
1477483469.112:   2425  88  11  678
1477483469.113:   2478  88  11  678
1477483469.113:   2532  88  11  678
1477483469.113:   2578  88  11  678
1477483469.113:   2606  88  11  678
1477483469.113:   2618  88  11  678
1477483469.114:   2626  88  11  678
1477483469.114:   2635  88  11  678
1477483469.114:   2640  88  11  678
1477483469.114:   2635  88  11  678
1477483469.115:   2616  88  11  678
1477483469.115:   2588  88  11  678
1477483469.115:   2557  88  11  678
1477483469.116:   2520  88  11  678
1477483469.119:   2472  88  11  678
1477483469.120:   2408  88  11  678
1477483469.131:   2328  88  11  678
1477483469.132:   2234  88  11  678
1477483469.132:   2125  88  11  678
1477483469.133:   2000  88  11  678
1477483469.133:   1860  88  11  678
1477483469.134:   1708  88  11  678
1477483469.134:   1549  88  11  678
1477483469.138:   1381  88  11  678
1477483469.150:   1206  88  11  678
1477483469.150:   1031  88  11  678
1477483469.151:    863  88  11  678
1477483469.152:    698  88  11  678
1477483469.153:    530  88  11  678
1477483469.154:    356  88  11  678
1477483469.154:    184  88  11  678
1477483469.154:     22  88  11  678
1477483469.156:   -130  88  11  678
1477483469.156:   -280  88  11  678
1477483469.159:   -428  88  11  678
1477483469.159:   -569  88  11  678
1477483469.160:   -696  88  11  678
1477483469.164:   -814  88  11  678
1477483469.166:   -928  88  11  678
1477483469.170:  -1032  88  11  678
1477483469.182:  -1117  88  11  678
1477483469.182:  -1180  88  11  678
1477483469.183:  -1236  88  11  678
1477483469.184:  -1297  88  11  678
1477483469.186:  -1364  88  11  678
1477483469.186:  -1420  88  11  678
1477483469.187:  -1453  88  11  678
1477483469.188:  -1469  88  11  678
1477483469.188:  -1489  88  11  678
1477483469.189:  -1520  88  11  678
1477483469.189:  -1553  88  11  678
1477483469.190:  -1575  88  11  678
1477483469.193:  -1579  88  11  678
1477483469.197:  -1571  88  11  678
1477483469.202:  -1558  88  11  678
1477483469.203:  -1545  88  11  678
1477483469.204:  -1532  88  11  678
1477483469.205:  -1523  88  11  678
1477483469.206:  -1517  88  11  678
1477483469.206:  -1510  88  11  678
1477483469.211:  -1497  88  11  678
1477483469.212:  -1477  88  11  678
1477483469.226:  -1456  88  11  678
1477483469.226:  -1440  88  11  678
1477483469.227:  -1426  88  11  678
1477483469.227:  -1405  88  11  678
1477483469.228:  -1378  88  11  678
1477483469.229:  -1350  88  11  678
1477483469.229:  -1326  88  11  678
1477483469.230:  -1303  88  11  678
1477483469.231:  -1274  88  11  678
1477483469.231:  -1242  88  11  678
1477483469.232:  -1216  88  11  678
1477483469.234:  -1203  88  11  678
1477483469.239:  -1198  88  11  678
1477483469.239:  -1189  88  11  678
1477483469.240:  -1173  88  11  678
1477483469.241:  -1154  88  11  678
1477483469.243:  -1140  88  11  678
1477483469.245:  -1133  88  11  678
1477483469.247:  -1130  88  11  678
1477483469.252:  -1126  88  11  678
1477483469.265:  -1119  88  11  678
1477483469.266:  -1107  88  11  678
1477483469.266:  -1091  88  11  678
1477483469.266:  -1074  88  11  678
1477483469.266:  -1067  88  11  678
1477483469.266:  -1069  88  11  678
1477483469.266:  -1070  88  11  678
1477483469.266:  -1062  88  11  678
1477483469.268:  -1046  88  11  678
1477483469.270:  -1032  88  11  678
1477483469.270:  -1025  88  11  678
1477483469.273:  -1025  88  11  678
1477483469.275:  -1020  88  11  678
1477483469.280:  -1009  88  11  678
1477483469.286:   -995  88  11  678
1477483469.286:   -985  88  11  678
1477483469.286:   -980  88  11  678
1477483469.286:   -975  88  11  678
1477483469.288:   -969  88  11  678
1477483469.290:   -961  88  11  678
1477483469.294:   -955  88  11  678
1477483469.295:   -954  88  11  678
1477483469.298:   -956  88  11  678
1477483469.299:   -956  88  11  678
1477483469.299:   -948  88  11  678
1477483469.302:   -933  88  11  678
1477483469.303:   -915  88  11  678
1477483469.309:   -906  88  11  678
1477483469.310:   -908  88  11  678
1477483469.310:   -917  88  11  678
1477483469.311:   -920  88  11  678
1477483469.312:   -912  88  11  678
1477483469.321:   -897  88  11  678
1477483469.321:   -889  88  11  678
1477483469.340:   -892  88  11  678
1477483469.341:   -898  88  11  678
1477483469.341:   -892  88  11  678
1477483469.342:   -868  88  11  678
1477483469.343:   -841  88  11  678
1477483469.344:   -827  88  11  678
1477483469.345:   -831  88  11  678
1477483469.346:   -837  88  11  678
1477483469.346:   -827  88  11  678
1477483469.347:   -805  88  11  678
1477483469.347:   -788  88  11  678
1477483469.348:   -787  88  11  678
1477483469.359:   -793  88  11  678
1477483469.361:   -791  88  11  678
1477483469.362:   -776  88  11  678
1477483469.362:   -759  88  11  678
1477483469.363:   -751  88  11  678
1477483469.364:   -750  88  11  678
1477483469.364:   -748  88  11  678
1477483469.365:   -737  88  11  678
1477483469.366:   -723  88  11  678
1477483469.366:   -715  88  11  678
1477483469.385:   -712  88  11  678
1477483469.393:   -712  88  11  678
1477483469.396:   -708  88  11  678
1477483469.453:   -702  88  11  678
1477483469.454:   -696  88  11  678
1477483469.454:   -692  88  11  678
1477483469.454:   -687  88  11  678
1477483469.454:   -676  88  11  678
1477483469.454:   -660  88  11  678
1477483469.455:   -643  88  11  678
1477483469.455:   -628  88  11  678
1477483469.455:   -618  88  11  678
1477483469.455:   -609  88  11  678
1477483469.455:   -599  88  11  678
1477483469.455:   -595  88  11  678
1477483469.455:   -599  88  11  678
1477483469.455:   -604  88  11  678
1477483469.456:   -600  88  11  678
1477483469.456:   -585  88  11  678
1477483469.456:   -572  88  11  678
1477483469.456:   -570  88  11  678
1477483469.456:   -572  88  11  678
1477483469.456:   -564  88  11  678
1477483469.456:   -543  88  11  678
1477483469.456:   -519  88  11  678
1477483469.457:   -505  88  11  678
1477483469.457:   -499  88  11  678
1477483469.457:   -493  88  11  678
1477483469.457:   -484  88  11  678
1477483469.457:   -477  88  11  678
1477483469.457:   -474  88  11  678
1477483469.458:   -470  88  11  678
1477483469.458:   -457  88  11  678
1477483469.458:   -441  88  11  678
1477483469.458:   -432  88  11  678
1477483469.458:   -433  88  11  678
1477483469.458:   -437  88  11  678
1477483469.458:   -436  88  11  678
1477483469.458:   -432  88  11  678
1477483469.459:   -429  88  11  678
1477483469.459:   -423  88  11  678
1477483469.459:   -405  88  11  678
1477483469.460:   -377  88  11  678
1477483469.460:   -355  88  11  678
1477483469.460:   -355  88  11  678
1477483469.460:   -375  88  11  678
1477483469.460:   -401  88  11  678
1477483469.460:   -417  88  11  678
1477483469.461:   -418  88  11  678
1477483469.461:   -421  88  11  678
1477483469.461:   -441  88  11  678
1477483469.464:   -477  88  11  678
1477483469.464:   -508  88  11  678
1477483469.465:   -500  88  11  678
1477483469.466:   -438  88  11  678
1477483469.468:   -332  88  11  678
1477483469.483:   -210  88  11  678
1477483469.483:    -85  88  11  678
1477483469.483:     46  88  11  678
1477483469.484:    194  88  11  678
1477483469.484:    347  88  11  678
1477483469.484:    481  88  11  678
1477483469.484:    582  88  11  678
1477483469.486:    652  88  11  678
1477483469.487:    693  88  11  678
1477483469.494:    703  88  11  678
1477483469.495:    677  88  11  678
1477483469.495:    627  88  11  678
1477483469.495:    576  88  11  678
1477483469.497:    538  88  11  678
1477483469.521:    508  88  11  678
1477483469.521:    475  88  11  678
1477483469.522:    438  88  11  678
1477483469.522:    401  88  11  678
1477483469.522:    369  88  11  678
1477483469.523:    336  88  11  678
1477483469.523:    297  88  11  678
1477483469.523:    250  88  11  678
1477483469.524:    193  88  11  678
1477483469.524:    131  88  11  678
1477483469.525:     71  88  11  678
1477483469.525:     22  88  11  678
1477483469.525:    -14  88  11  678
1477483469.526:    -53  88  11  678
1477483469.527:   -112  88  11  678
1477483469.527:   -184  88  11  678
1477483469.530:   -241  88  11  678
1477483469.534:   -269  88  11  678
1477483469.544:   -283  88  11  678
1477483469.544:   -314  88  11  678
1477483469.545:   -370  88  11  678
1477483469.545:   -430  88  11  678
1477483469.546:   -462  88  11  678
1477483469.546:   -455  88  11  678
1477483469.547:   -431  88  11  678
1477483469.547:   -414  88  11  678
1477483469.550:   -412  88  11  678
1477483469.551:   -408  88  11  678
1477483469.552:   -386  88  11  678
1477483469.555:   -349  88  11  678
1477483469.565:   -318  88  11  678
1477483469.566:   -308  88  11  678
1477483469.566:   -301  88  11  678
1477483469.567:   -272  88  11  678
1477483469.568:   -207  88  11  678
1477483469.569:   -127  88  11  678
1477483469.571:    -58  88  11  678
1477483469.572:     13  88  11  678
1477483469.573:    128  88  11  678
1477483469.578:    320  88  11  678
1477483469.579:    570  88  11  678
1477483469.580:    835  88  11  678
1477483469.583:   1091  88  11  678
1477483469.585:   1365  88  11  678
1477483469.587:   1706  88  11  678
1477483469.587:   2142  88  11  678
1477483469.592:   2673  88  11  678
1477483469.593:   3308  88  11  678
1477483469.608:   4076  88  11  678
1477483469.609:   4996  88  11  678
1477483469.609:   6044  88  11  678
1477483469.609:   7146  88  11  678
1477483469.609:   8188  88  11  678
1477483469.609:   9016  88  11  678
1477483469.610:   9444  88  11  678
1477483469.610:   9304  88  11  678
1477483469.610:   8552  88  11  678
1477483469.614:   7325  88  11  678
1477483469.614:   5864  88  11  678
1477483469.615:   4362  88  11  678
1477483469.617:   2870  88  11  678
1477483469.619:   1376  88  11  678
1477483469.623:    -47  88  11  678
1477483469.624:  -1194  88  11  678
1477483469.626:  -1859  88  11  678
1477483469.627:  -2014  88  11  678
1477483469.627:  -1838  88  11  678
1477483469.630:  -1582  88  11  678
1477483469.631:  -1403  88  11  678
1477483469.637:  -1317  88  11  678
1477483469.655:  -1276  88  11  678
1477483469.655:  -1264  88  11  678
1477483469.655:  -1309  88  11  678
1477483469.655:  -1430  88  11  678
1477483469.655:  -1603  88  11  678
1477483469.656:  -1769  88  11  678
1477483469.656:  -1875  88  11  678
1477483469.656:  -1902  88  11  678
1477483469.656:  -1861  88  11  678
1477483469.657:  -1765  88  11  678
1477483469.657:  -1640  88  11  678
1477483469.658:  -1519  88  11  678
1477483469.661:  -1447  88  11  678
1477483469.662:  -1454  88  11  678
1477483469.664:  -1532  88  11  678
1477483469.668:  -1632  88  11  678
1477483469.678:  -1690  88  11  678
1477483469.679:  -1673  88  11  678
1477483469.679:  -1584  88  11  678
1477483469.680:  -1457  88  11  678
1477483469.681:  -1329  88  11  678
1477483469.681:  -1231  88  11  678
1477483469.682:  -1184  88  11  678
1477483469.683:  -1189  88  11  678
1477483469.684:  -1226  88  11  678
1477483469.685:  -1257  88  11  678
1477483469.688:  -1254  88  11  678
1477483469.689:  -1209  88  11  678
1477483469.699:  -1139  88  11  678
1477483469.699:  -1059  88  11  678
1477483469.700:   -984  88  11  678
1477483469.701:   -922  88  11  678
1477483469.702:   -883  88  11  678
1477483469.702:   -871  88  11  678
1477483469.703:   -870  88  11  678
1477483469.706:   -856  88  11  678
1477483469.710:   -814  88  11  678
1477483469.710:   -754  88  11  678
1477483469.718:   -698  88  11  678
1477483469.719:   -658  88  11  678
1477483469.721:   -624  88  11  678
1477483469.721:   -581  88  11  678
1477483469.722:   -527  88  11  678
1477483469.724:   -474  88  11  678
1477483469.724:   -431  88  11  678
1477483469.726:   -391  88  11  678
1477483469.738:   -346  88  11  678
1477483469.739:   -293  88  11  678
1477483469.740:   -237  88  11  678
1477483469.741:   -180  88  11  678
1477483469.741:   -117  88  11  678
1477483469.742:    -49  88  11  678
1477483469.743:     16  88  11  678
1477483469.743:     71  88  11  678
1477483469.747:    120  88  11  678
1477483469.747:    172  88  11  678
1477483469.748:    231  88  11  678
1477483469.751:    289  88  11  678
1477483469.775:    342  88  11  678
1477483469.775:    394  88  11  678
1477483469.775:    455  88  11  678
1477483469.776:    529  88  11  678
1477483469.776:    610  88  11  678
1477483469.776:    691  88  11  678
1477483469.776:    770  88  11  678
1477483469.776:    852  88  11  678
1477483469.777:    938  88  11  678
1477483469.777:   1028  88  11  678
1477483469.777:   1119  88  11  678
1477483469.777:   1208  88  11  678
1477483469.777:   1293  88  11  678
1477483469.778:   1370  88  11  678
1477483469.778:   1445  88  11  678
1477483469.779:   1523  88  11  678
1477483469.785:   1611  88  11  678
1477483469.785:   1702  88  11  678
1477483469.788:   1787  88  11  678
1477483469.788:   1866  88  11  678
1477483469.791:   1945  88  11  678
1477483469.792:   2031  88  11  678
1477483469.794:   2119  88  11  678
1477483469.795:   2199  88  11  678
1477483469.817:   2264  88  11  678
1477483469.817:   2323  88  11  678
1477483469.817:   2385  88  11  678
1477483469.818:   2447  88  11  678
1477483469.818:   2498  88  11  678
1477483469.818:   2531  88  11  678
1477483469.818:   2554  88  11  678
1477483469.818:   2578  85  11  685
1477483469.818:   2605  85  11  685
1477483469.818:   2625  85  11  685
1477483469.819:   2633  85  11  685
1477483469.819:   2632  85  11  685
1477483469.819:   2628  85  11  685
1477483469.824:   2617  85  11  685
1477483469.824:   2590  85  11  685
1477483469.826:   2546  85  11  685
1477483469.827:   2491  85  11  685
1477483469.829:   2435  85  11  685
1477483469.832:   2374  85  11  685
1477483469.833:   2297  85  11  685
1477483469.841:   2198  85  11  685
1477483469.841:   2084  85  11  685
1477483469.841:   1965  85  11  685
1477483469.842:   1841  85  11  685
1477483469.844:   1703  85  11  685
1477483469.847:   1551  85  11  685
1477483469.847:   1390  85  11  685
1477483469.853:   1226  85  11  685
1477483469.861:   1055  85  11  685
1477483469.861:    872  85  11  685
1477483469.861:    683  85  11  685
1477483469.861:    498  85  11  685
1477483469.861:    326  85  11  685
1477483469.864:    162  85  11  685
1477483469.866:     -3  85  11  685
1477483469.869:   -169  85  11  685
1477483469.870:   -328  85  11  685
1477483469.870:   -474  85  11  685
1477483469.873:   -609  85  11  685
1477483469.874:   -739  85  11  685
1477483469.875:   -862  85  11  685
1477483469.879:   -969  85  11  685
1477483469.880:  -1059  85  11  685
1477483469.885:  -1141  85  11  685
1477483469.900:  -1225  85  11  685
1477483469.900:  -1315  85  11  685
1477483469.900:  -1393  85  11  685
1477483469.902:  -1448  85  11  685
1477483469.902:  -1479  85  11  685
1477483469.903:  -1507  85  11  685
1477483469.903:  -1544  85  11  685
1477483469.903:  -1587  85  11  685
1477483469.904:  -1616  85  11  685
1477483469.904:  -1617  85  11  685
1477483469.905:  -1602  85  11  685
1477483469.907:  -1592  85  11  685
1477483469.919:  -1596  85  11  685
1477483469.919:  -1602  85  11  685
1477483469.919:  -1597  85  11  685
1477483469.919:  -1580  85  11  685
1477483469.919:  -1564  85  11  685
1477483469.919:  -1558  85  11  685
1477483469.921:  -1551  85  11  685
1477483469.921:  -1530  85  11  685
1477483469.922:  -1497  85  11  685
1477483469.926:  -1468  85  11  685
1477483469.926:  -1453  85  11  685
1477483469.927:  -1443  85  11  685
1477483469.935:  -1421  85  11  685
1477483469.937:  -1383  85  11  685
1477483469.937:  -1344  85  11  685
1477483469.939:  -1319  85  11  685
1477483469.941:  -1308  85  11  685
1477483469.941:  -1293  85  11  685
1477483469.944:  -1265  85  11  685
1477483469.945:  -1230  85  11  685
1477483469.946:  -1202  85  11  685
1477483469.955:  -1186  85  11  685
1477483469.978:  -1172  85  11  685
1477483469.978:  -1150  85  11  685
1477483469.979:  -1123  85  11  685
1477483469.981:  -1103  85  11  685
1477483469.982:  -1094  85  11  685
1477483469.983:  -1086  85  11  685
1477483469.984:  -1067  85  11  685
1477483469.986:  -1042  85  11  685
1477483469.986:  -1026  85  11  685
1477483469.987:  -1027  85  11  685
1477483470.000:  -1034  85  11  685
1477483470.001:  -1033  85  11  685
1477483470.003:  -1019  85  11  685
1477483470.004:  -1002  85  11  685
1477483470.005:   -992  85  11  685
1477483470.006:   -990  85  11  685
1477483470.007:   -989  85  11  685
1477483470.008:   -983  85  11  685
1477483470.018:   -972  85  11  685
1477483470.019:   -960  85  11  685
1477483470.021:   -952  85  11  685
1477483470.021:   -947  85  11  685
1477483470.022:   -944  85  11  685
1477483470.023:   -939  85  11  685
1477483470.023:   -931  85  11  685
1477483470.024:   -924  85  11  685
1477483470.024:   -922  85  11  685
1477483470.025:   -924  85  11  685
1477483470.035:   -926  85  11  685
1477483470.036:   -926  85  11  685
1477483470.037:   -923  85  11  685
1477483470.038:   -917  85  11  685
1477483470.039:   -910  85  11  685
1477483470.039:   -904  85  11  685
1477483470.040:   -900  85  11  685
1477483470.040:   -899  85  11  685
1477483470.041:   -896  85  11  685
1477483470.044:   -891  85  11  685
1477483470.044:   -886  85  11  685
1477483470.044:   -886  85  11  685
1477483470.045:   -890  85  11  685
1477483470.045:   -892  85  11  685
1477483470.069:   -890  85  11  685
1477483470.069:   -884  85  11  685
1477483470.075:   -876  85  11  685
1477483470.075:   -865  85  11  685
1477483470.075:   -849  85  11  685
1477483470.076:   -834  85  11  685
1477483470.076:   -826  85  11  685
1477483470.076:   -824  85  11  685
1477483470.076:   -814  85  11  685
1477483470.076:   -789  85  11  685
1477483470.079:   -762  85  11  685
1477483470.079:   -755  85  11  685
1477483470.080:   -769  85  11  685
1477483470.081:   -782  85  11  685
1477483470.082:   -771  85  11  685
1477483470.083:   -740  85  11  685
1477483470.084:   -720  85  11  685
1477483470.084:   -725  85  11  685
1477483470.085:   -744  85  11  685
1477483470.085:   -748  85  11  685
1477483470.085:   -732  85  11  685
1477483470.085:   -712  85  11  685
1477483470.086:   -709  85  11  685
1477483470.086:   -719  85  11  685
1477483470.086:   -722  85  11  685
1477483470.089:   -711  85  11  685
1477483470.089:   -695  85  11  685
1477483470.089:   -686  85  11  685
1477483470.090:   -681  85  11  685
1477483470.090:   -668  85  11  685
1477483470.094:   -642  85  11  685
1477483470.095:   -615  85  11  685
1477483470.109:   -600  85  11  685
1477483470.109:   -596  85  11  685
1477483470.110:   -591  85  11  685
1477483470.111:   -582  85  11  685
1477483470.111:   -572  85  11  685
1477483470.112:   -568  85  11  685
1477483470.113:   -572  85  11  685
1477483470.113:   -578  85  11  685
1477483470.114:   -586  85  11  685
1477483470.115:   -590  85  11  685
1477483470.117:   -585  85  11  685
1477483470.118:   -569  85  11  685
1477483470.215:   -550  85  11  685
1477483470.215:   -538  85  11  685
1477483470.215:   -536  85  11  685
1477483470.215:   -532  85  11  685
1477483470.215:   -516  85  11  685
1477483470.215:   -493  85  11  685
1477483470.216:   -474  85  11  685
1477483470.216:   -459  85  11  685
1477483470.216:   -441  85  11  685
1477483470.216:   -424  85  11  685
1477483470.216:   -429  85  11  685
1477483470.216:   -460  85  11  685
1477483470.216:   -496  85  11  685
1477483470.217:   -503  85  11  685
1477483470.217:   -481  85  11  685
1477483470.217:   -468  85  11  685
1477483470.217:   -493  85  11  685
1477483470.217:   -539  85  11  685
1477483470.217:   -547  85  11  685
1477483470.218:   -481  85  11  685
1477483470.218:   -361  85  11  685
1477483470.219:   -231  85  11  685
1477483470.219:   -112  85  11  685
1477483470.219:     11  85  11  685
1477483470.220:    158  85  11  685
1477483470.220:    318  85  11  685
1477483470.221:    457  85  11  685
1477483470.221:    561  85  11  685
1477483470.221:    631  85  11  685
1477483470.221:    679  85  11  685
1477483470.221:    701  85  11  685
1477483470.221:    690  85  11  685
1477483470.222:    651  85  11  685
1477483470.222:    600  85  11  685
1477483470.222:    557  85  11  685
1477483470.222:    526  85  11  685
1477483470.223:    498  85  11  685
1477483470.223:    462  85  11  685
1477483470.223:    416  85  11  685
1477483470.223:    370  85  11  685
1477483470.223:    334  85  11  685
1477483470.223:    299  85  11  685
1477483470.224:    248  85  11  685
1477483470.224:    176  85  11  685
1477483470.224:    101  85  11  685
1477483470.224:     50  85  11  685
1477483470.224:     26  85  11  685
1477483470.224:     -2  85  11  685
1477483470.225:    -63  85  11  685
1477483470.225:   -149  85  11  685
1477483470.225:   -221  85  11  685
1477483470.225:   -253  85  11  685
1477483470.226:   -263  85  11  685
1477483470.229:   -291  85  11  685
1477483470.245:   -353  85  11  685
1477483470.246:   -423  85  11  685
1477483470.246:   -469  85  11  685
1477483470.246:   -481  85  11  685
1477483470.246:   -473  85  11  685
1477483470.246:   -461  85  11  685
1477483470.246:   -449  85  11  685
1477483470.246:   -435  85  11  685
1477483470.247:   -419  85  11  685
1477483470.247:   -401  85  11  685
1477483470.247:   -380  85  11  685
1477483470.249:   -353  85  11  685
1477483470.249:   -326  85  11  685
1477483470.252:   -303  85  11  685
1477483470.253:   -276  85  11  685
1477483470.253:   -231  85  11  685
1477483470.256:   -162  85  11  685
1477483470.259:    -85  85  11  685
1477483470.265:     -5  85  11  685
1477483470.265:     98  85  11  685
1477483470.275:    255  85  11  685
1477483470.275:    475  85  11  685
1477483470.275:    732  85  11  685
1477483470.275:    990  85  11  685
1477483470.275:   1250  85  11  685
1477483470.277:   1559  85  11  685
1477483470.277:   1960  85  11  685
1477483470.279:   2469  85  11  685
1477483470.280:   3086  85  11  685
1477483470.282:   3817  85  11  685
1477483470.284:   4684  85  11  685
1477483470.287:   5688  85  11  685
1477483470.288:   6778  85  11  685
1477483470.290:   7851  85  11  685
1477483470.304:   8761  85  11  685
1477483470.305:   9321  85  11  685
1477483470.305:   9350  85  11  685
1477483470.305:   8762  85  11  685
1477483470.306:   7649  85  11  685
1477483470.308:   6246  85  11  685
1477483470.308:   4777  85  11  685
1477483470.309:   3322  85  11  685
1477483470.311:   1851  85  11  685
1477483470.312:    393  85  11  685
1477483470.322:   -868  85  11  685
1477483470.322:  -1691  85  11  685
1477483470.323:  -1974  85  11  685
1477483470.324:  -1854  85  11  685
1477483470.324:  -1595  85  11  685
1477483470.325:  -1394  85  11  685
1477483470.326:  -1296  85  11  685
1477483470.327:  -1257  85  11  685
1477483470.328:  -1243  85  11  685
1477483470.330:  -1274  85  11  685
1477483470.332:  -1371  85  11  685
1477483470.333:  -1519  85  11  685
1477483470.337:  -1673  85  11  685
1477483470.338:  -1790  85  11  685
1477483470.340:  -1850  85  11  685
1477483470.343:  -1845  85  11  685
1477483470.358:  -1768  85  11  685
1477483470.361:  -1632  85  11  685
1477483470.362:  -1482  85  11  685
1477483470.362:  -1385  85  11  685
1477483470.363:  -1383  85  11  685
1477483470.363:  -1467  85  11  685
1477483470.364:  -1572  85  11  685
1477483470.365:  -1631  85  11  685
1477483470.365:  -1611  85  11  685
1477483470.366:  -1522  85  11  685
1477483470.377:  -1396  85  11  685
1477483470.377:  -1266  85  11  685
1477483470.377:  -1159  85  11  685
1477483470.377:  -1098  85  11  685
1477483470.378:  -1091  85  11  685
1477483470.378:  -1121  85  11  685
1477483470.378:  -1153  85  11  685
1477483470.378:  -1156  85  11  685
1477483470.378:  -1119  85  11  685
1477483470.382:  -1057  85  11  685
1477483470.383:   -988  85  11  685
1477483470.389:   -928  85  11  685
1477483470.390:   -876  85  11  685
1477483470.390:   -833  85  11  685
1477483470.395:   -797  85  11  685
1477483470.395:   -770  85  11  685
1477483470.396:   -746  85  11  685
1477483470.397:   -715  85  11  685
1477483470.398:   -669  85  11  685
1477483470.399:   -607  85  11  685
1477483470.401:   -544  85  11  685
1477483470.406:   -493  85  11  685
1477483470.418:   -452  85  11  685
1477483470.418:   -410  85  11  685
1477483470.420:   -361  85  11  685
1477483470.420:   -313  85  11  685
1477483470.422:   -274  85  11  685
1477483470.424:   -239  85  11  685
1477483470.425:   -191  85  11  685
1477483470.426:   -119  85  11  685
1477483470.427:    -35  85  11  685
1477483470.427:     41  85  11  685
1477483470.428:    103  85  11  685
1477483470.429:    161  85  11  685
1477483470.429:    229  85  11  685
1477483470.434:    308  85  11  685
1477483470.447:    392  85  11  685
1477483470.448:    477  85  11  685
1477483470.448:    560  85  11  685
1477483470.448:    639  85  11  685
1477483470.449:    707  85  11  685
1477483470.449:    770  85  11  685
1477483470.450:    841  85  11  685
1477483470.450:    930  85  11  685
1477483470.471:   1031  85  11  685
1477483470.472:   1121  85  11  685
1477483470.475:   1184  85  11  685
1477483470.477:   1232  85  11  685
1477483470.478:   1292  85  11  685
1477483470.478:   1380  85  11  685
1477483470.479:   1486  85  11  685
1477483470.480:   1586  85  11  685
1477483470.480:   1667  85  11  685
1477483470.481:   1738  85  11  685
1477483470.482:   1824  85  11  685
1477483470.482:   1931  85  11  685
1477483470.483:   2044  85  11  685
1477483470.484:   2149  85  11  685
1477483470.485:   2246  85  11  685
1477483470.485:   2345  85  11  685
1477483470.505:   2448  85  11  685
1477483470.506:   2543  85  11  685
1477483470.546:   2623  85  11  685
1477483470.547:   2697  85  11  685
1477483470.547:   2780  85  11  685
1477483470.547:   2866  85  11  685
1477483470.547:   2931  85  11  685
1477483470.547:   2967  85  11  685
1477483470.548:   2990  85  11  685
1477483470.548:   3024  85  11  685
1477483470.548:   3070  85  11  685
1477483470.548:   3104  85  11  685
1477483470.548:   3112  85  11  685
1477483470.548:   3105  85  11  685
1477483470.549:   3111  85  11  685
1477483470.549:   3132  85  11  685
1477483470.549:   3143  85  11  685
1477483470.549:   3116  85  11  685
1477483470.549:   3059  85  11  685
1477483470.549:   2998  85  11  685
1477483470.550:   2954  85  11  685
1477483470.550:   2910  85  11  685
1477483470.550:   2832  85  11  691
1477483470.550:   2703  85  11  691
1477483470.551:   2540  85  11  691
1477483470.551:   2374  85  11  691
1477483470.551:   2225  85  11  691
1477483470.551:   2078  85  11  691
1477483470.551:   1913  85  11  691
1477483470.551:   1723  85  11  691
1477483470.552:   1521  85  11  691
1477483470.552:   1325  85  11  691
1477483470.552:   1139  85  11  691
1477483470.552:    959  85  11  691
1477483470.552:    775  85  11  691
1477483470.552:    588  85  11  691
1477483470.553:    398  85  11  691
1477483470.555:    211  85  11  691
1477483470.559:     31  85  11  691
1477483470.560:   -137  85  11  691
1477483470.561:   -292  85  11  691
1477483470.562:   -441  85  11  691
1477483470.567:   -586  85  11  691
1477483470.568:   -725  85  11  691
1477483470.575:   -849  85  11  691
1477483470.576:   -956  85  11  691
1477483470.576:  -1053  85  11  691
1477483470.576:  -1145  85  11  691
1477483470.576:  -1230  85  11  691
1477483470.577:  -1298  85  11  691
1477483470.579:  -1348  85  11  691
1477483470.585:  -1388  85  11  691
1477483470.587:  -1424  85  11  691
1477483470.588:  -1454  85  11  691
1477483470.590:  -1470  85  11  691
1477483470.591:  -1480  85  11  691
1477483470.592:  -1495  85  11  691
1477483470.595:  -1523  85  11  691
1477483470.597:  -1552  85  11  691
1477483470.597:  -1564  85  11  691
1477483470.600:  -1556  85  11  691
1477483470.600:  -1546  85  11  691
1477483470.603:  -1552  85  11  691
1477483470.604:  -1570  85  11  691
1477483470.606:  -1576  85  11  691
1477483470.611:  -1554  85  11  691
1477483470.620:  -1512  85  11  691
1477483470.620:  -1468  85  11  691
1477483470.620:  -1438  85  11  691
1477483470.620:  -1413  85  11  691
1477483470.620:  -1381  85  11  691
1477483470.620:  -1338  85  11  691
1477483470.626:  -1296  85  11  691
1477483470.626:  -1264  85  11  691
1477483470.628:  -1241  85  11  691
1477483470.628:  -1219  85  11  691
1477483470.630:  -1196  85  11  691
1477483470.632:  -1178  85  11  691
1477483470.636:  -1170  85  11  691
1477483470.640:  -1167  85  11  691
1477483470.648:  -1159  85  11  691
1477483470.665:  -1141  85  11  691
1477483470.667:  -1123  85  11  691
1477483470.668:  -1112  85  11  691
1477483470.673:  -1107  85  11  691
1477483470.673:  -1095  85  11  691
1477483470.673:  -1072  85  11  691
1477483470.673:  -1045  85  11  691
1477483470.674:  -1026  85  11  691
1477483470.675:  -1013  85  11  691
1477483470.676:  -1001  85  11  691
1477483470.676:   -984  85  11  691
1477483470.677:   -968  85  11  691
1477483470.678:   -961  85  11  691
1477483470.678:   -962  85  11  691
1477483470.679:   -961  85  11  691
1477483470.682:   -951  85  11  691
1477483470.683:   -935  85  11  691
1477483470.684:   -920  85  11  691
1477483470.685:   -913  85  11  691
1477483470.685:   -913  85  11  691
1477483470.685:   -912  85  11  691
1477483470.686:   -904  85  11  691
1477483470.686:   -889  85  11  691
1477483470.686:   -873  85  11  691
1477483470.686:   -864  85  11  691
1477483470.689:   -868  85  11  691
1477483470.694:   -878  85  11  691
1477483470.707:   -884  85  11  691
1477483470.708:   -879  85  11  691
1477483470.708:   -864  85  11  691
1477483470.709:   -851  85  11  691
1477483470.711:   -843  85  11  691
1477483470.711:   -838  85  11  691
1477483470.712:   -831  85  11  691
1477483470.713:   -823  85  11  691
1477483470.714:   -820  85  11  691
1477483470.714:   -823  85  11  691
1477483470.725:   -829  85  11  691
1477483470.726:   -828  85  11  691
1477483470.727:   -817  85  11  691
1477483470.727:   -802  85  11  691
1477483470.728:   -794  85  11  691
1477483470.729:   -801  85  11  691
1477483470.729:   -812  85  11  691
1477483470.730:   -810  85  11  691
1477483470.730:   -788  85  11  691
1477483470.731:   -759  85  11  691
1477483470.742:   -743  85  11  691
1477483470.743:   -746  85  11  691
1477483470.744:   -754  85  11  691
1477483470.745:   -750  85  11  691
1477483470.745:   -734  85  11  691
1477483470.746:   -719  85  11  691
1477483470.747:   -712  85  11  691
1477483470.748:   -709  85  11  691
1477483470.759:   -703  85  11  691
1477483470.760:   -696  85  11  691
1477483470.761:   -695  85  11  691
1477483470.761:   -698  85  11  691
1477483470.762:   -697  85  11  691
1477483470.762:   -685  85  11  691
1477483470.763:   -665  85  11  691
1477483470.764:   -643  85  11  691
1477483470.765:   -624  85  11  691
1477483470.767:   -609  85  11  691
1477483470.776:   -602  85  11  691
1477483470.777:   -609  85  11  691
1477483470.778:   -628  85  11  691
1477483470.778:   -644  85  11  691
1477483470.779:   -644  85  11  691
1477483470.780:   -630  85  11  691
1477483470.781:   -620  85  11  691
1477483470.781:   -628  85  11  691
1477483470.783:   -643  85  11  691
1477483470.784:   -637  85  11  691
1477483470.793:   -589  85  11  691
1477483470.794:   -508  85  11  691
1477483470.795:   -418  85  11  691
1477483470.796:   -336  85  11  691
1477483470.796:   -247  85  11  691
1477483470.797:   -128  85  11  691
1477483470.798:     19  85  11  691
1477483470.804:    165  85  11  691
1477483470.810:    281  85  11  691
1477483470.811:    364  85  11  691
1477483470.812:    433  85  11  691
1477483470.812:    496  85  11  691
1477483470.812:    538  85  11  691
1477483470.812:    541  85  11  691
1477483470.816:    508  85  11  691
1477483470.816:    461  85  11  691
1477483470.822:    419  85  11  691
1477483470.823:    378  85  11  691
1477483470.827:    333  85  11  691
1477483470.828:    287  85  11  691
1477483470.828:    246  85  11  691
1477483470.829:    209  85  11  691
1477483470.830:    162  85  11  691
1477483470.832:    106  85  11  691
1477483470.837:     52  85  11  691
1477483470.837:     14  85  11  691
1477483470.845:    -14  85  11  691
1477483470.845:    -56  85  11  691
1477483470.846:   -125  85  11  691
1477483470.846:   -209  85  11  691
1477483470.846:   -286  85  11  691
1477483470.850:   -340  85  11  691
1477483470.953:   -377  85  11  691
1477483470.954:   -413  85  11  691
1477483470.954:   -455  85  11  691
1477483470.954:   -493  85  11  691
1477483470.954:   -515  85  11  691
1477483470.955:   -514  85  11  691
1477483470.955:   -503  85  11  691
1477483470.955:   -496  85  11  691
1477483470.955:   -497  85  11  691
1477483470.955:   -495  85  11  691
1477483470.955:   -479  85  11  691
1477483470.955:   -453  85  11  691
1477483470.956:   -440  85  11  691
1477483470.956:   -447  85  11  691
1477483470.957:   -458  85  11  691
1477483470.957:   -448  85  11  691
1477483470.957:   -414  85  11  691
1477483470.957:   -377  85  11  691
1477483470.958:   -354  85  11  691
1477483470.958:   -330  85  11  691
1477483470.958:   -276  85  11  691
1477483470.958:   -192  85  11  691
1477483470.958:   -101  85  11  691
1477483470.959:    -24  85  11  691
1477483470.959:     61  85  11  691
1477483470.959:    200  85  11  691
1477483470.959:    420  85  11  691
1477483470.959:    700  85  11  691
1477483470.959:   1000  85  11  691
1477483470.960:   1316  85  11  691
1477483470.960:   1685  85  11  691
1477483470.960:   2143  85  11  691
1477483470.960:   2703  85  11  691
1477483470.960:   3366  85  11  691
1477483470.971:   4134  85  11  691
1477483470.971:   4989  85  11  691
1477483470.972:   5864  85  11  691
1477483470.972:   6645  85  11  691
1477483470.972:   7218  85  11  691
1477483470.972:   7494  85  11  691
1477483470.972:   7400  85  11  691
1477483470.972:   6866  85  11  691
1477483470.972:   5877  85  11  691
1477483470.973:   4554  85  11  691
1477483470.973:   3124  85  11  691
1477483470.973:   1792  85  11  691
1477483470.973:    625  85  11  691
1477483470.973:   -403  85  11  691
1477483470.974:  -1279  85  11  691
1477483470.974:  -1877  85  11  691
1477483470.974:  -2072  85  11  691
1477483470.974:  -1888  85  11  691
1477483470.974:  -1525  85  11  691
1477483470.974:  -1203  85  11  691
1477483470.974:  -1025  85  11  691
1477483470.974:   -957  85  11  691
1477483470.975:   -941  85  11  691
1477483470.975:   -967  85  11  691
1477483470.975:  -1054  85  11  691
1477483470.975:  -1194  85  11  691
1477483470.975:  -1340  85  11  691
1477483470.975:  -1441  85  11  691
1477483470.975:  -1478  85  11  691
1477483470.976:  -1451  85  11  691
1477483470.976:  -1371  85  11  691
1477483470.976:  -1252  85  11  691
1477483470.982:  -1129  85  11  691
1477483470.982:  -1044  85  11  691
1477483470.986:  -1029  85  11  691
1477483470.987:  -1083  85  11  691
1477483470.995:  -1171  85  11  691
1477483470.996:  -1242  85  11  691
1477483470.996:  -1258  85  11  691
1477483470.997:  -1207  85  11  691
1477483470.997:  -1107  85  11  691
1477483470.998:   -992  85  11  691
1477483470.999:   -895  85  11  691
1477483471.000:   -838  85  11  691
1477483471.017:   -829  85  11  691
1477483471.017:   -854  85  11  691
1477483471.017:   -890  85  11  691
1477483471.017:   -907  85  11  691
1477483471.017:   -885  85  11  691
1477483471.017:   -828  85  11  691
1477483471.018:   -752  85  11  691
1477483471.018:   -679  85  11  691
1477483471.018:   -623  85  11  691
1477483471.020:   -585  85  11  691
1477483471.023:   -561  85  11  691
1477483471.027:   -546  85  11  691
1477483471.027:   -532  85  11  691
1477483471.029:   -510  85  11  691
1477483471.040:   -472  85  11  691
1477483471.040:   -417  85  11  691
1477483471.040:   -355  85  11  691
1477483471.041:   -297  85  11  691
1477483471.069:   -252  85  11  691
1477483471.069:   -213  85  11  691
1477483471.082:   -172  85  11  691
1477483471.082:   -126  85  11  691
1477483471.082:    -78  85  11  691
1477483471.082:    -30  85  11  691
1477483471.082:     14  85  11  691
1477483471.082:     56  85  11  691
1477483471.083:     97  85  11  691
1477483471.083:    138  85  11  691
1477483471.083:    185  85  11  691
1477483471.084:    241  85  11  691
1477483471.084:    302  85  11  691
1477483471.084:    357  85  11  691
1477483471.084:    405  85  11  691
1477483471.084:    454  85  11  691
1477483471.085:    514  85  11  691
1477483471.085:    586  85  11  691
1477483471.085:    662  85  11  691
1477483471.085:    739  85  11  691
1477483471.085:    816  85  11  691
1477483471.085:    896  85  11  691
1477483471.085:    976  85  11  691
1477483471.085:   1056  85  11  691
1477483471.086:   1139  85  11  691
1477483471.088:   1228  85  11  691
1477483471.089:   1322  85  11  691
1477483471.091:   1413  85  11  691
1477483471.096:   1495  85  11  691
1477483471.096:   1575  85  11  691
1477483471.126:   1665  85  11  691
1477483471.127:   1764  85  11  691
1477483471.127:   1867  85  11  691
1477483471.127:   1963  85  11  691
1477483471.127:   2052  85  11  691
1477483471.127:   2139  85  11  691
1477483471.128:   2227  85  11  691
1477483471.128:   2315  85  11  691
1477483471.128:   2396  85  11  691
1477483471.128:   2469  85  11  691
1477483471.129:   2531  85  11  691
1477483471.129:   2586  85  11  691
1477483471.129:   2635  85  11  691
1477483471.129:   2679  85  11  691
1477483471.130:   2716  85  11  691
1477483471.130:   2747  85  11  691
1477483471.131:   2773  85  11  691
1477483471.131:   2798  85  11  691
1477483471.132:   2819  85  11  691
1477483471.139:   2833  85  11  691
1477483471.148:   2837  85  11  691
1477483471.149:   2833  85  11  691
1477483471.149:   2826  85  11  691
1477483471.149:   2812  85  11  691
1477483471.149:   2780  85  11  691
1477483471.149:   2730  85  11  691
1477483471.150:   2670  85  11  691
1477483471.154:   2608  85  11  691
1477483471.154:   2541  85  11  691
1477483471.155:   2456  85  11  691
1477483471.156:   2347  85  11  691
1477483471.160:   2220  85  11  691
1477483471.167:   2087  85  11  691
1477483471.167:   1950  85  11  691
1477483471.167:   1798  85  11  691
1477483471.167:   1619  85  11  691
1477483471.168:   1420  85  11  691
1477483471.169:   1216  85  11  691
1477483471.172:   1021  85  11  691
1477483471.174:    833  85  11  691
1477483471.178:    644  85  11  691
1477483471.178:    450  85  11  691
1477483471.187:    259  85  11  691
1477483471.187:     81  85  11  691
1477483471.187:    -83  85  11  691
1477483471.188:   -237  85  11  691
1477483471.188:   -388  85  11  691
1477483471.189:   -537  85  11  691
1477483471.191:   -679  85  11  691
1477483471.193:   -809  85  11  691
1477483471.197:   -929  85  11  691
1477483471.197:  -1042  85  11  691
1477483471.202:  -1144  85  11  691
1477483471.202:  -1229  85  11  691
1477483471.204:  -1297  85  11  691
1477483471.205:  -1355  85  11  691
1477483471.219:  -1410  85  11  691
1477483471.219:  -1464  85  11  691
1477483471.220:  -1509  85  11  691
1477483471.220:  -1540  85  11  691
1477483471.221:  -1563  84  11  688
1477483471.221:  -1586  84  11  688
1477483471.221:  -1614  84  11  688
1477483471.221:  -1639  84  11  688
1477483471.225:  -1652  84  11  688
1477483471.225:  -1649  84  11  688
1477483471.226:  -1640  84  11  688
1477483471.229:  -1630  84  11  688
1477483471.239:  -1620  84  11  688
1477483471.239:  -1607  84  11  688
1477483471.239:  -1589  84  11  688
1477483471.239:  -1568  84  11  688
1477483471.240:  -1547  84  11  688
1477483471.240:  -1528  84  11  688
1477483471.242:  -1506  84  11  688
1477483471.244:  -1483  84  11  688
1477483471.251:  -1460  84  11  688
1477483471.252:  -1438  84  11  688
1477483471.252:  -1416  84  11  688
1477483471.252:  -1390  84  11  688
1477483471.254:  -1362  84  11  688
1477483471.255:  -1335  84  11  688
1477483471.258:  -1310  84  11  688
1477483471.260:  -1287  84  11  688
1477483471.280:  -1265  84  11  688
1477483471.281:  -1241  84  11  688
1477483471.281:  -1221  84  11  688
1477483471.281:  -1206  84  11  688
1477483471.282:  -1195  84  11  688
1477483471.282:  -1183  84  11  688
1477483471.283:  -1166  84  11  688
1477483471.284:  -1144  84  11  688
1477483471.284:  -1124  84  11  688
1477483471.284:  -1112  84  11  688
1477483471.285:  -1106  84  11  688
1477483471.285:  -1097  84  11  688
1477483471.285:  -1083  84  11  688
1477483471.288:  -1066  84  11  688
1477483471.299:  -1054  84  11  688
1477483471.299:  -1047  84  11  688
1477483471.299:  -1041  84  11  688
1477483471.301:  -1030  84  11  688
1477483471.301:  -1013  84  11  688
1477483471.301:   -996  84  11  688
1477483471.303:   -983  84  11  688
1477483471.303:   -975  84  11  688
1477483471.308:   -968  84  11  688
1477483471.308:   -959  84  11  688
1477483471.319:   -952  84  11  688
1477483471.319:   -951  84  11  688
1477483471.320:   -956  84  11  688
1477483471.320:   -964  84  11  688
1477483471.320:   -966  84  11  688
1477483471.320:   -960  84  11  688
1477483471.320:   -947  84  11  688
1477483471.325:   -935  84  11  688
1477483471.325:   -930  84  11  688
1477483471.327:   -933  84  11  688
1477483471.330:   -935  84  11  688
1477483471.330:   -930  84  11  688
1477483471.339:   -916  84  11  688
1477483471.339:   -902  84  11  688
1477483471.339:   -895  84  11  688
1477483471.340:   -895  84  11  688
1477483471.340:   -894  84  11  688
1477483471.341:   -888  84  11  688
1477483471.348:   -878  84  11  688
1477483471.348:   -868  84  11  688
1477483471.348:   -861  84  11  688
1477483471.350:   -857  84  11  688
1477483471.352:   -856  84  11  688
1477483471.354:   -858  84  11  688
1477483471.363:   -862  84  11  688
1477483471.364:   -865  84  11  688
1477483471.364:   -864  84  11  688
1477483471.364:   -860  84  11  688
1477483471.366:   -858  84  11  688
1477483471.366:   -857  84  11  688
1477483471.367:   -853  84  11  688
1477483471.369:   -841  84  11  688
1477483471.371:   -817  84  11  688
1477483471.375:   -784  84  11  688
1477483471.376:   -755  84  11  688
1477483471.378:   -743  84  11  688
1477483471.380:   -760  84  11  688
1477483471.381:   -794  84  11  688
1477483471.399:   -823  84  11  688
1477483471.399:   -827  84  11  688
1477483471.399:   -819  84  11  688
1477483471.399:   -826  84  11  688
1477483471.400:   -864  84  11  688
1477483471.400:   -907  84  11  688
1477483471.400:   -912  84  11  688
1477483471.400:   -851  84  11  688
1477483471.400:   -743  84  11  688
1477483471.402:   -624  84  11  688
1477483471.402:   -510  84  11  688
1477483471.407:   -392  84  11  688
1477483471.407:   -254  84  11  688
1477483471.409:   -101  84  11  688
1477483471.410:     42  84  11  688
1477483471.415:    159  84  11  688
1477483471.415:    244  84  11  688
1477483471.417:    298  84  11  688
1477483471.436:    317  84  11  688
1477483471.437:    304  84  11  688
1477483471.438:    271  84  11  688
1477483471.438:    238  84  11  688
1477483471.439:    211  84  11  688
1477483471.440:    183  84  11  688
1477483471.440:    142  84  11  688
1477483471.441:     91  84  11  688
1477483471.442:     47  84  11  688
1477483471.442:     24  84  11  688
1477483471.444:     13  84  11  688
1477483471.444:     -9  84  11  688
1477483471.445:    -55  84  11  688
1477483471.445:   -111  84  11  688
1477483471.464:   -151  84  11  688
1477483471.464:   -166  84  11  688
1477483471.465:   -180  84  11  688
1477483471.465:   -225  84  11  688
1477483471.466:   -307  84  11  688
1477483471.466:   -398  84  11  688
1477483471.467:   -462  84  11  688
1477483471.469:   -490  84  11  688
1477483471.470:   -510  84  11  688
1477483471.470:   -550  84  11  688
1477483471.471:   -609  84  11  688
1477483471.472:   -660  84  11  688
1477483471.483:   -678  84  11  688
1477483471.486:   -667  84  11  688
1477483471.486:   -646  84  11  688
1477483471.486:   -626  84  11  688
1477483471.486:   -603  84  11  688
1477483471.486:   -574  84  11  688
1477483471.486:   -547  84  11  688
1477483471.487:   -530  84  11  688
1477483471.487:   -521  84  11  688
1477483471.487:   -510  84  11  688
1477483471.488:   -492  84  11  688
1477483471.494:   -471  84  11  688
1477483471.507:   -450  84  11  688
1477483471.507:   -418  84  11  688
1477483471.507:   -363  84  11  688
1477483471.507:   -291  84  11  688
1477483471.510:   -217  84  11  688
1477483471.511:   -133  84  11  688
1477483471.512:    -14  84  11  688
1477483471.512:    163  84  11  688
1477483471.513:    394  84  11  688
1477483471.514:    651  84  11  688
1477483471.515:    918  84  11  688
1477483471.516:   1225  84  11  688
1477483471.528:   1613  84  11  688
1477483471.614:   2099  84  11  688
1477483471.622:   2676  84  11  688
1477483471.623:   3344  84  11  688
1477483471.623:   4126  84  11  688
1477483471.623:   5036  84  11  688
1477483471.623:   6039  84  11  688
1477483471.623:   7036  84  11  688
1477483471.623:   7895  84  11  688
1477483471.624:   8469  84  11  688
1477483471.624:   8611  84  11  688
1477483471.624:   8212  84  11  688
1477483471.624:   7270  84  11  688
1477483471.624:   5938  84  11  688
1477483471.624:   4448  84  11  688
1477483471.624:   2975  84  11  688
1477483471.625:   1569  84  11  688
1477483471.625:    223  84  11  688
1477483471.625:   -980  84  11  688
1477483471.625:  -1859  84  11  688
1477483471.625:  -2257  84  11  688
1477483471.625:  -2200  84  11  688
1477483471.626:  -1895  84  11  688
1477483471.626:  -1582  84  11  688
1477483471.626:  -1388  84  11  688
1477483471.626:  -1304  84  11  688
1477483471.626:  -1276  84  11  688
1477483471.626:  -1285  84  11  688
1477483471.627:  -1348  84  11  688
1477483471.627:  -1470  84  11  688
1477483471.627:  -1627  84  11  688
1477483471.627:  -1768  84  11  688
1477483471.627:  -1848  84  11  688
1477483471.627:  -1847  84  11  688
1477483471.627:  -1767  84  11  688
1477483471.628:  -1632  84  11  688
1477483471.628:  -1486  84  11  688
1477483471.628:  -1374  84  11  688
1477483471.628:  -1331  84  11  688
1477483471.628:  -1368  84  11  688
1477483471.628:  -1460  84  11  688
1477483471.629:  -1554  84  11  688
1477483471.629:  -1595  84  11  688
1477483471.629:  -1557  84  11  688
1477483471.629:  -1456  84  11  688
1477483471.630:  -1331  84  11  688
1477483471.630:  -1223  84  11  688
1477483471.631:  -1155  84  11  688
1477483471.631:  -1132  84  11  688
1477483471.631:  -1149  84  11  688
1477483471.631:  -1185  84  11  688
1477483471.631:  -1214  84  11  688
1477483471.631:  -1208  84  11  688
1477483471.631:  -1161  84  11  688
1477483471.632:  -1084  84  11  688
1477483471.632:  -1002  84  11  688
1477483471.632:   -931  84  11  688
1477483471.632:   -873  84  11  688
1477483471.632:   -828  84  11  688
1477483471.636:   -797  84  11  688
1477483471.636:   -778  84  11  688
1477483471.637:   -762  84  11  688
1477483471.639:   -733  84  11  688
1477483471.641:   -683  84  11  688
1477483471.644:   -624  84  11  688
1477483471.645:   -576  84  11  688
1477483471.649:   -544  84  11  688
1477483471.650:   -518  84  11  688
1477483471.651:   -487  84  11  688
1477483471.653:   -450  84  11  688
1477483471.668:   -416  84  11  688
1477483471.668:   -384  84  11  688
1477483471.668:   -343  84  11  688
1477483471.669:   -284  84  11  688
1477483471.669:   -213  84  11  688
1477483471.669:   -146  84  11  688
1477483471.669:    -86  84  11  688
1477483471.669:    -26  84  11  688
1477483471.673:     42  84  11  688
1477483471.674:    113  84  11  688
1477483471.677:    175  84  11  688
1477483471.678:    230  84  11  688
1477483471.691:    285  84  11  688
1477483471.691:    351  84  11  688
1477483471.692:    421  84  11  688
1477483471.692:    488  84  11  688
1477483471.693:    550  84  11  688
1477483471.693:    614  84  11  688
1477483471.693:    688  84  11  688
1477483471.694:    769  84  11  688
1477483471.694:    849  84  11  688
1477483471.695:    923  84  11  688
1477483471.698:   1000  84  11  688
1477483471.700:   1087  84  11  688
1477483471.702:   1185  84  11  688
1477483471.704:   1282  84  11  688
1477483471.705:   1373  84  11  688
1477483471.710:   1457  84  11  688
1477483471.710:   1542  84  11  688
1477483471.711:   1628  84  11  688
1477483471.728:   1713  84  11  688
1477483471.728:   1793  84  11  688
1477483471.728:   1871  84  11  688
1477483471.728:   1950  84  11  688
1477483471.728:   2030  84  11  688
1477483471.728:   2102  84  11  688
1477483471.729:   2164  84  11  688
1477483471.729:   2223  84  11  688
1477483471.729:   2284  84  11  688
1477483471.731:   2344  84  11  688
1477483471.733:   2394  84  11  688
1477483471.738:   2432  84  11  688
1477483471.739:   2467  84  11  688
1477483471.739:   2507  84  11  688
1477483471.742:   2546  84  11  688
1477483471.743:   2571  84  11  688
1477483471.745:   2577  84  11  688
1477483471.746:   2572  84  11  688
1477483471.755:   2568  84  11  688
1477483471.756:   2559  84  11  688
1477483471.764:   2535  84  11  688
1477483471.764:   2488  84  11  688
1477483471.764:   2426  84  11  688
1477483471.765:   2359  84  11  688
1477483471.765:   2289  84  11  688
1477483471.765:   2208  84  11  688
1477483471.765:   2107  84  11  688
1477483471.767:   1987  84  11  688
1477483471.768:   1855  84  11  688
1477483471.770:   1710  84  11  688
1477483471.772:   1554  84  11  688
1477483471.774:   1389  84  11  688
1477483471.784:   1220  84  11  688
1477483471.784:   1051  84  11  688
1477483471.785:    877  84  11  688
1477483471.785:    694  84  11  688
1477483471.785:    507  84  11  688
1477483471.786:    328  84  11  688
1477483471.787:    162  84  11  688
1477483471.791:      5  84  11  688
1477483471.791:   -151  84  11  688
1477483471.793:   -309  84  11  688
1477483471.795:   -459  84  11  688
1477483471.797:   -596  84  11  688
1477483471.800:   -724  84  11  688
1477483471.801:   -848  84  11  688
1477483471.806:   -965  84  11  688
1477483471.806:  -1066  84  11  688
1477483471.809:  -1147  84  11  688
1477483471.809:  -1214  84  11  688
1477483471.812:  -1278  84  11  688
1477483471.814:  -1342  84  11  688
1477483471.815:  -1394  84  11  688
1477483471.821:  -1430  84  11  688
1477483471.843:  -1452  84  11  688
1477483471.843:  -1472  84  11  688
1477483471.844:  -1496  84  11  688
1477483471.844:  -1522  84  11  688
1477483471.844:  -1544  84  11  688
1477483471.845:  -1557  84  11  688
1477483471.845:  -1558  84  11  688
1477483471.845:  -1549  84  11  688
1477483471.845:  -1536  84  11  688
1477483471.846:  -1524  84  11  688
1477483471.846:  -1513  84  11  688
1477483471.846:  -1499  84  11  688
1477483471.846:  -1478  84  11  688
1477483471.847:  -1453  84  11  688
1477483471.847:  -1434  87  11  686
1477483471.849:  -1426  87  11  686
1477483471.851:  -1423  87  11  686
1477483471.853:  -1417  87  11  686
1477483471.855:  -1404  87  11  686
1477483471.856:  -1391  87  11  686
1477483471.860:  -1378  87  11  686
1477483471.861:  -1362  87  11  686
1477483471.872:  -1337  87  11  686
1477483471.872:  -1304  87  11  686
1477483471.873:  -1272  87  11  686
1477483471.873:  -1243  87  11  686
1477483471.875:  -1217  87  11  686
1477483471.875:  -1191  87  11  686
1477483471.876:  -1166  87  11  686
1477483471.876:  -1143  87  11  686
1477483471.881:  -1120  87  11  686
1477483471.881:  -1096  87  11  686
1477483471.891:  -1075  87  11  686
1477483471.892:  -1064  87  11  686
1477483471.893:  -1061  87  11  686
1477483471.893:  -1055  87  11  686
1477483471.893:  -1041  87  11  686
1477483471.894:  -1020  87  11  686
1477483471.895:  -1003  87  11  686
1477483471.896:   -995  87  11  686
1477483471.897:   -987  87  11  686
1477483471.900:   -974  87  11  686
1477483471.910:   -954  87  11  686
1477483471.911:   -934  87  11  686
1477483471.912:   -916  87  11  686
1477483471.912:   -897  87  11  686
1477483471.912:   -877  87  11  686
1477483471.914:   -862  87  11  686
1477483471.915:   -858  87  11  686
1477483471.916:   -861  87  11  686
1477483471.917:   -861  87  11  686
1477483471.945:   -852  87  11  686
1477483471.948:   -841  87  11  686
1477483471.949:   -838  87  11  686
1477483471.949:   -843  87  11  686
1477483471.952:   -849  87  11  686
1477483471.952:   -848  87  11  686
1477483471.952:   -840  87  11  686
1477483471.952:   -830  87  11  686
1477483471.952:   -824  87  11  686
1477483471.952:   -821  87  11  686
1477483471.953:   -818  87  11  686
1477483471.953:   -817  87  11  686
1477483471.955:   -821  87  11  686
1477483471.955:   -828  87  11  686
1477483471.956:   -831  87  11  686
1477483471.956:   -825  87  11  686
1477483471.957:   -811  87  11  686
1477483471.957:   -799  87  11  686
1477483471.957:   -792  87  11  686
1477483471.958:   -788  87  11  686
1477483471.961:   -777  87  11  686
1477483471.970:   -757  87  11  686
1477483471.970:   -736  87  11  686
1477483471.971:   -726  87  11  686
1477483471.971:   -731  87  11  686
1477483471.971:   -742  87  11  686
1477483471.971:   -749  87  11  686
1477483471.974:   -747  87  11  686
1477483471.975:   -739  87  11  686
1477483471.976:   -726  87  11  686
1477483471.978:   -708  87  11  686
1477483471.979:   -684  87  11  686
1477483471.982:   -663  87  11  686
1477483471.990:   -660  87  11  686
1477483471.990:   -677  87  11  686
1477483471.990:   -700  87  11  686
1477483471.990:   -709  87  11  686
1477483471.992:   -703  87  11  686
1477483471.994:   -705  87  11  686
1477483471.996:   -736  87  11  686
1477483471.997:   -787  87  11  686
1477483472.002:   -818  87  11  686
1477483472.003:   -792  87  11  686
1477483472.011:   -714  87  11  686
1477483472.012:   -618  87  11  686
1477483472.013:   -526  87  11  686
1477483472.013:   -426  87  11  686
1477483472.015:   -293  87  11  686
1477483472.016:   -124  87  11  686
1477483472.016:     48  87  11  686
1477483472.017:    187  87  11  686
1477483472.020:    282  87  11  686
1477483472.021:    346  87  11  686
1477483472.031:    390  87  11  686
1477483472.031:    410  87  11  686
1477483472.031:    400  87  11  686
1477483472.031:    366  87  11  686
1477483472.031:    324  87  11  686
1477483472.034:    283  87  11  686
1477483472.039:    242  87  11  686
1477483472.040:    199  87  11  686
1477483472.040:    159  87  11  686
1477483472.041:    129  87  11  686
1477483472.043:    105  87  11  686
1477483472.078:     74  87  11  686
1477483472.078:     25  87  11  686
1477483472.078:    -36  87  11  686
1477483472.078:    -92  87  11  686
1477483472.079:   -133  87  11  686
1477483472.079:   -169  87  11  686
1477483472.079:   -219  87  11  686
1477483472.079:   -293  87  11  686
1477483472.082:   -375  87  11  686
1477483472.082:   -443  87  11  686
1477483472.084:   -483  87  11  686
1477483472.085:   -507  87  11  686
1477483472.085:   -533  87  11  686
1477483472.085:   -572  87  11  686
1477483472.085:   -614  87  11  686
1477483472.085:   -642  87  11  686
1477483472.085:   -648  87  11  686
1477483472.085:   -638  87  11  686
1477483472.085:   -621  87  11  686
1477483472.086:   -603  87  11  686
1477483472.087:   -587  87  11  686
1477483472.088:   -575  87  11  686
1477483472.089:   -564  87  11  686
1477483472.093:   -551  87  11  686
1477483472.093:   -533  87  11  686
1477483472.095:   -513  87  11  686
1477483472.096:   -496  87  11  686
1477483472.097:   -481  87  11  686
1477483472.100:   -453  87  11  686
1477483472.132:   -401  87  11  686
1477483472.133:   -328  87  11  686
1477483472.134:   -253  87  11  686
1477483472.134:   -184  87  11  686
1477483472.137:    -99  87  11  686
1477483472.138:     27  87  11  686
1477483472.140:    209  87  11  686
1477483472.140:    437  87  11  686
1477483472.141:    689  87  11  686
1477483472.142:    962  87  11  686
1477483472.144:   1286  87  11  686
1477483472.144:   1691  87  11  686
1477483472.144:   2191  87  11  686
1477483472.145:   2788  87  11  686
1477483472.145:   3497  87  11  686
1477483472.145:   4344  87  11  686
1477483472.145:   5329  87  11  686
1477483472.145:   6398  87  11  686
1477483472.146:   7442  87  11  686
1477483472.146:   8328  87  11  686
1477483472.146:   8918  87  11  686
1477483472.146:   9065  87  11  686
1477483472.148:   8650  87  11  686
1477483472.229:   7664  87  11  686
1477483472.235:   6264  87  11  686
1477483472.235:   4697  87  11  686
1477483472.235:   3160  87  11  686
1477483472.235:   1705  87  11  686
1477483472.235:    318  87  11  686
1477483472.235:   -932  87  11  686
1477483472.236:  -1855  87  11  686
1477483472.236:  -2281  87  11  686
1477483472.236:  -2226  87  11  686
1477483472.236:  -1910  87  11  686
1477483472.236:  -1591  87  11  686
1477483472.236:  -1400  87  11  686
1477483472.236:  -1322  87  11  686
1477483472.236:  -1293  87  11  686
1477483472.237:  -1297  87  11  686
1477483472.237:  -1359  87  11  686
1477483472.237:  -1489  87  11  686
1477483472.237:  -1658  87  11  686
1477483472.237:  -1808  87  11  686
1477483472.237:  -1895  87  11  686
1477483472.238:  -1902  87  11  686
1477483472.238:  -1831  87  11  686
1477483472.238:  -1705  87  11  686
1477483472.238:  -1568  87  11  686
1477483472.238:  -1468  87  11  686
1477483472.239:  -1436  87  11  686
1477483472.239:  -1476  87  11  686
1477483472.239:  -1557  87  11  686
1477483472.239:  -1633  87  11  686
1477483472.239:  -1663  87  11  686
1477483472.239:  -1621  87  11  686
1477483472.240:  -1516  87  11  686
1477483472.240:  -1380  87  11  686
1477483472.240:  -1257  87  11  686
1477483472.240:  -1183  87  11  686
1477483472.240:  -1167  87  11  686
1477483472.241:  -1192  87  11  686
1477483472.241:  -1228  87  11  686
1477483472.246:  -1249  87  11  686
1477483472.246:  -1238  87  11  686
1477483472.246:  -1192  87  11  686
1477483472.246:  -1120  87  11  686
1477483472.246:  -1040  87  11  686
1477483472.251:   -973  87  11  686
1477483472.251:   -930  87  11  686
1477483472.252:   -906  87  11  686
1477483472.252:   -887  87  11  686
1477483472.252:   -862  87  11  686
1477483472.252:   -830  87  11  686
1477483472.252:   -794  87  11  686
1477483472.252:   -750  87  11  686
1477483472.252:   -695  87  11  686
1477483472.252:   -632  87  11  686
1477483472.254:   -571  87  11  686
1477483472.256:   -519  87  11  686
1477483472.258:   -473  87  11  686
1477483472.259:   -425  87  11  686
1477483472.263:   -373  87  11  686
1477483472.271:   -325  87  11  686
1477483472.272:   -283  87  11  686
1477483472.272:   -244  87  11  686
1477483472.272:   -198  87  11  686
1477483472.272:   -145  87  11  686
1477483472.272:    -90  87  11  686
1477483472.277:    -42  87  11  686
1477483472.277:      1  87  11  686
1477483472.279:     48  87  11  686
1477483472.280:    103  87  11  686
1477483472.291:    171  87  11  686
1477483472.292:    247  87  11  686
1477483472.293:    324  87  11  686
1477483472.293:    398  87  11  686
1477483472.294:    469  87  11  686
1477483472.295:    542  87  11  686
1477483472.296:    621  87  11  686
1477483472.296:    707  87  11  686
1477483472.299:    794  87  11  686
1477483472.300:    879  87  11  686
1477483472.305:    958  87  11  686
1477483472.305:   1033  87  11  686
1477483472.312:   1110  87  11  686
1477483472.312:   1195  87  11  686
1477483472.312:   1291  87  11  686
1477483472.313:   1392  87  11  686
1477483472.315:   1488  87  11  686
1477483472.318:   1573  87  11  686
1477483472.319:   1653  87  11  686
1477483472.320:   1739  87  11  686
1477483472.322:   1832  87  11  686
1477483472.324:   1924  87  11  686
1477483472.326:   2006  87  11  686
1477483472.327:   2080  87  11  686
1477483472.341:   2155  87  11  686
1477483472.341:   2235  87  11  686
1477483472.341:   2314  87  11  686
1477483472.342:   2383  87  11  686
1477483472.342:   2440  87  11  686
1477483472.342:   2489  87  11  686
1477483472.342:   2533  87  11  686
1477483472.346:   2573  87  11  686
1477483472.346:   2606  87  11  686
1477483472.348:   2631  87  11  686
1477483472.349:   2644  87  11  686
1477483472.351:   2645  87  11  686
1477483472.361:   2640  87  11  686
1477483472.361:   2638  87  11  686
1477483472.362:   2640  87  11  686
1477483472.362:   2630  87  11  686
1477483472.362:   2593  87  11  686
1477483472.362:   2530  87  11  686
1477483472.365:   2461  87  11  686
1477483472.367:   2399  87  11  686
1477483472.369:   2330  87  11  686
1477483472.374:   2230  87  11  686
1477483472.404:   2090  87  11  686
1477483472.404:   1933  87  11  686
1477483472.404:   1783  87  11  686
1477483472.405:   1642  87  11  686
1477483472.405:   1488  87  11  686
1477483472.406:   1310  87  11  686
1477483472.406:   1121  87  11  686
1477483472.406:    939  87  11  686
1477483472.406:    769  87  11  686
1477483472.407:    598  87  11  686
1477483472.407:    418  87  11  686
1477483472.408:    237  87  11  686
1477483472.409:     66  87  11  686
1477483472.410:    -92  87  11  686
1477483472.410:   -244  87  11  686
1477483472.410:   -393  87  11  686
1477483472.410:   -539  87  11  686
1477483472.410:   -673  87  11  686
1477483472.411:   -792  87  11  686
1477483472.411:   -898  87  11  686
1477483472.415:   -991  87  11  686
1477483472.415:  -1074  87  11  686
1477483472.425:  -1151  87  11  686
1477483472.426:  -1226  87  11  686
1477483472.426:  -1296  87  11  686
1477483472.426:  -1354  87  11  686
1477483472.426:  -1398  87  11  686
1477483472.426:  -1430  87  11  686
1477483472.427:  -1460  87  11  686
1477483472.432:  -1490  87  11  686
1477483472.432:  -1516  87  11  686
1477483472.434:  -1534  87  11  686
1477483472.435:  -1541  87  11  686
1477483472.443:  -1539  87  11  686
1477483472.444:  -1530  87  11  686
1477483472.444:  -1518  87  11  686
1477483472.444:  -1510  87  11  686
1477483472.446:  -1512  87  11  686
1477483472.448:  -1518  87  11  686
1477483472.449:  -1515  87  11  686
1477483472.451:  -1499  87  11  686
1477483472.454:  -1475  87  11  686
1477483472.467:  -1460  91  12  680
1477483472.468:  -1459  91  12  680
1477483472.468:  -1456  91  12  680
1477483472.468:  -1433  91  12  680
1477483472.469:  -1388  91  12  680
1477483472.469:  -1340  91  12  680
1477483472.469:  -1310  91  12  680
1477483472.469:  -1296  91  12  680
1477483472.473:  -1280  91  12  680
1477483472.473:  -1248  91  12  680
1477483472.476:  -1209  91  12  680
1477483472.477:  -1178  91  12  680
1477483472.488:  -1161  91  12  680
1477483472.489:  -1150  91  12  680
1477483472.489:  -1136  91  12  680
1477483472.489:  -1116  91  12  680
1477483472.489:  -1097  91  12  680
1477483472.489:  -1081  91  12  680
1477483472.491:  -1065  91  12  680
1477483472.492:  -1047  91  12  680
1477483472.495:  -1030  91  12  680
1477483472.496:  -1016  91  12  680
1477483472.500:  -1001  91  12  680
1477483472.501:   -982  91  12  680
1477483472.502:   -959  91  12  680
1477483472.503:   -938  91  12  680
1477483472.519:   -925  91  12  680
1477483472.519:   -919  91  12  680
1477483472.519:   -915  91  12  680
1477483472.519:   -908  91  12  680
1477483472.519:   -895  91  12  680
1477483472.519:   -878  91  12  680
1477483472.519:   -865  91  12  680
1477483472.521:   -859  91  12  680
1477483472.522:   -859  91  12  680
1477483472.524:   -856  91  12  680
1477483472.530:   -845  91  12  680
1477483472.530:   -824  91  12  680
1477483472.538:   -805  91  12  680
1477483472.538:   -795  91  12  680
1477483472.538:   -796  91  12  680
1477483472.538:   -799  91  12  680
1477483472.538:   -793  91  12  680
1477483472.542:   -780  91  12  680
1477483472.542:   -768  91  12  680
1477483472.544:   -762  91  12  680
1477483472.547:   -765  91  12  680
1477483472.551:   -772  91  12  680
1477483472.551:   -777  91  12  680
1477483472.553:   -777  91  12  680
1477483472.554:   -771  91  12  680
1477483472.555:   -763  91  12  680
1477483472.561:   -758  91  12  680
1477483472.561:   -757  91  12  680
1477483472.564:   -758  91  12  680
1477483472.565:   -755  91  12  680
1477483472.581:   -747  91  12  680
1477483472.581:   -733  91  12  680
1477483472.581:   -720  91  12  680
1477483472.581:   -714  91  12  680
1477483472.582:   -718  91  12  680
1477483472.582:   -724  91  12  680
1477483472.582:   -724  91  12  680
1477483472.582:   -717  91  12  680
1477483472.582:   -712  91  12  680
1477483472.582:   -719  91  12  680
1477483472.585:   -736  91  12  680
1477483472.588:   -750  91  12  680
1477483472.592:   -752  91  12  680
1477483472.593:   -742  91  12  680
1477483472.595:   -729  91  12  680
1477483472.596:   -714  91  12  680
1477483472.597:   -697  91  12  680
1477483472.602:   -689  91  12  680
1477483472.603:   -701  91  12  680
1477483472.606:   -735  91  12  680
1477483472.619:   -768  91  12  680
1477483472.620:   -782  91  12  680
1477483472.620:   -786  91  12  680
1477483472.620:   -808  91  12  680
1477483472.620:   -861  91  12  680
1477483472.620:   -912  91  12  680
1477483472.624:   -914  91  12  680
1477483472.624:   -845  91  12  680
1477483472.625:   -725  91  12  680
1477483472.625:   -591  91  12  680
1477483472.625:   -452  91  12  680
1477483472.627:   -298  91  12  680
1477483472.629:   -127  91  12  680
1477483472.633:     41  91  12  680
1477483472.640:    182  91  12  680
1477483472.640:    288  91  12  680
1477483472.640:    367  91  12  680
1477483472.640:    422  91  12  680
1477483472.640:    441  91  12  680
1477483472.643:    417  91  12  680
1477483472.648:    366  91  12  680
1477483472.649:    317  91  12  680
1477483472.650:    291  91  12  680
1477483472.655:    282  91  12  680
1477483472.656:    267  91  12  680
1477483472.656:    231  91  12  680
1477483472.656:    185  91  12  680
1477483472.661:    150  91  12  680
1477483472.675:    132  91  12  680
1477483472.676:    107  91  12  680
1477483472.676:     54  91  12  680
1477483472.676:    -20  91  12  680
1477483472.676:    -86  91  12  680
1477483472.676:   -122  91  12  680
1477483472.676:   -148  91  12  680
1477483472.677:   -199  91  12  680
1477483472.677:   -284  91  12  680
1477483472.678:   -370  91  12  680
1477483472.680:   -420  91  12  680
1477483472.683:   -436  91  12  680
1477483472.684:   -453  91  12  680
1477483472.688:   -500  91  12  680
1477483472.698:   -564  91  12  680
1477483472.698:   -613  91  12  680
1477483472.699:   -629  91  12  680
1477483472.699:   -624  91  12  680
1477483472.700:   -611  91  12  680
1477483472.700:   -594  91  12  680
1477483472.702:   -571  91  12  680
1477483472.705:   -547  91  12  680
1477483472.705:   -532  91  12  680
1477483472.706:   -525  91  12  680
1477483472.706:   -515  91  12  680
1477483472.710:   -495  91  12  680
1477483472.711:   -471  91  12  680
1477483472.716:   -458  91  12  680
1477483472.727:   -453  91  12  680
1477483472.728:   -435  91  12  680
1477483472.728:   -390  91  12  680
1477483472.728:   -321  91  12  680
1477483472.728:   -247  91  12  680
1477483472.728:   -172  91  12  680
1477483472.729:    -71  91  12  680
1477483472.729:     83  91  12  680
1477483472.731:    296  91  12  680
1477483472.732:    548  91  12  680
1477483472.733:    816  91  12  680
1477483472.741:   1101  91  12  680
1477483472.741:   1437  91  12  680
1477483472.744:   1857  91  12  680
1477483472.745:   2370  91  12  680
1477483472.745:   2976  91  12  680
1477483472.747:   3692  91  12  680
1477483472.747:   4551  91  12  680
1477483472.750:   5565  91  12  680
1477483472.752:   6689  91  12  680
1477483472.757:   7821  91  12  680
1477483472.757:   8815  91  12  680
1477483472.777:   9505  91  12  680
1477483472.864:   9712  91  12  680
1477483472.870:   9307  91  12  680
1477483472.871:   8298  91  12  680
1477483472.871:   6864  91  12  680
1477483472.872:   5255  91  12  680
1477483472.872:   3644  91  12  680
1477483472.873:   2068  91  12  680
1477483472.874:    530  91  12  680
1477483472.875:   -855  91  12  680
1477483472.875:  -1863  91  12  680
1477483472.876:  -2322  91  12  680
1477483472.877:  -2279  91  12  680
1477483472.877:  -1980  91  12  680
1477483472.877:  -1682  91  12  680
1477483472.878:  -1501  91  12  680
1477483472.878:  -1411  91  12  680
1477483472.878:  -1362  91  12  680
1477483472.879:  -1362  91  12  680
1477483472.879:  -1447  91  12  680
1477483472.880:  -1612  91  12  680
1477483472.880:  -1802  91  12  680
1477483472.900:  -1948  91  12  680
1477483472.900:  -2018  91  12  680
1477483472.900:  -2014  91  12  680
1477483472.901:  -1943  91  12  680
1477483472.901:  -1816  91  12  680
1477483472.901:  -1664  91  12  680
1477483472.901:  -1542  91  12  680
1477483472.901:  -1499  91  12  680
1477483472.901:  -1547  91  12  680
1477483472.901:  -1650  91  12  680
1477483472.901:  -1749  91  12  680
1477483472.902:  -1791  91  12  680
1477483472.902:  -1755  91  12  680
1477483472.903:  -1650  91  12  680
1477483472.904:  -1507  91  12  680
1477483472.904:  -1372  91  12  680
1477483472.905:  -1281  91  12  680
1477483472.906:  -1250  91  12  680
1477483472.906:  -1266  91  12  680
1477483472.906:  -1296  91  12  680
1477483472.906:  -1312  91  12  680
1477483472.906:  -1295  91  12  680
1477483472.907:  -1243  91  12  680
1477483472.907:  -1170  91  12  680
1477483472.907:  -1093  91  12  680
1477483472.907:  -1029  91  12  680
1477483472.908:   -980  91  12  680
1477483472.908:   -943  91  12  680
1477483472.909:   -912  91  12  680
1477483472.909:   -884  91  12  680
1477483472.909:   -854  91  12  680
1477483472.909:   -817  91  12  680
1477483472.909:   -768  91  12  680
1477483472.910:   -712  91  12  680
1477483472.910:   -656  91  12  680
1477483472.910:   -605  91  12  680
1477483472.910:   -561  91  12  680
1477483472.910:   -521  91  12  680
1477483472.910:   -482  91  12  680
1477483472.910:   -441  91  12  680
1477483472.911:   -391  91  12  680
1477483472.911:   -331  91  12  680
1477483472.911:   -265  91  12  680
1477483472.911:   -202  91  12  680
1477483472.911:   -148  91  12  680
1477483472.911:    -98  91  12  680
1477483472.911:    -44  91  12  680
1477483472.912:     15  91  12  680
1477483472.929:     77  91  12  680
1477483472.931:    138  91  12  680
1477483472.931:    200  91  12  680
1477483472.932:    265  91  12  680
1477483472.933:    337  91  12  680
1477483472.934:    414  91  12  680
1477483472.936:    498  91  12  680
1477483472.936:    588  91  12  680
1477483472.937:    680  91  12  680
1477483472.937:    769  91  12  680
1477483472.948:    851  91  12  680
1477483472.949:    929  91  12  680
1477483472.950:   1009  91  12  680
1477483472.951:   1093  91  12  680
1477483472.951:   1177  91  12  680
1477483472.951:   1256  91  12  680
1477483472.952:   1331  91  12  680
1477483472.952:   1411  91  12  680
1477483472.952:   1501  91  12  680
1477483472.954:   1595  91  12  680
1477483472.955:   1683  91  12  680
1477483472.955:   1762  91  12  680
1477483472.955:   1840  91  12  680
1477483472.956:   1924  91  12  680
1477483472.968:   2012  91  12  680
1477483472.969:   2092  91  12  680
1477483472.974:   2161  91  12  680
1477483472.975:   2222  91  12  680
1477483472.976:   2282  91  12  680
1477483472.976:   2345  91  12  680
1477483472.988:   2402  91  12  680
1477483472.988:   2452  91  12  680
1477483472.988:   2493  91  12  680
1477483472.988:   2528  91  12  680
1477483472.989:   2557  91  12  680
1477483472.989:   2581  91  12  680
1477483472.989:   2603  91  12  680
1477483472.989:   2622  91  12  680
1477483472.989:   2636  91  12  680
1477483472.989:   2635  91  12  680
1477483472.989:   2617  91  12  680
1477483472.989:   2590  91  12  680
1477483472.990:   2564  91  12  680
1477483472.990:   2536  91  12  680
1477483472.990:   2493  91  12  680
1477483472.990:   2423  91  12  680
1477483472.990:   2331  91  12  680
1477483472.990:   2225  91  12  680
1477483472.990:   2110  91  12  680
1477483472.991:   1980  91  12  680
1477483472.996:   1831  91  12  680
1477483472.997:   1670  91  12  680
1477483473.007:   1506  91  12  680
1477483473.008:   1340  91  12  680
1477483473.009:   1165  91  12  680
1477483473.010:    980  91  12  680
1477483473.011:    797  91  12  680
1477483473.011:    625  91  12  680
1477483473.013:    463  91  12  680
1477483473.014:    299  91  12  680
1477483473.029:    123  91  12  680
1477483473.029:    -56  91  12  680
1477483473.030:   -225  91  12  680
1477483473.030:   -374  91  12  680
1477483473.031:   -506  91  12  680
1477483473.032:   -632  91  12  680
1477483473.033:   -760  91  12  680
1477483473.033:   -888  91  12  680
1477483473.033:  -1002  91  12  680
1477483473.034:  -1094  91  12  680
1477483473.035:  -1168  91  12  680
1477483473.036:  -1235  91  12  680
1477483473.037:  -1302  91  12  680
1477483473.039:  -1360  91  12  680
1477483473.041:  -1400  91  12  680
1477483473.043:  -1426  91  12  680
1477483473.043:  -1453  91  12  680
1477483473.049:  -1486  91  12  680
1477483473.065:  -1517  91  12  680
1477483473.084:  -1533  91  12  680
1477483473.090:  -1537  91  12  680
1477483473.090:  -1542  91  12  680
1477483473.091:  -1555  91  12  680
1477483473.091:  -1566  91  12  680
1477483473.091:  -1565  91  12  680
1477483473.092:  -1555  94  12  671
1477483473.092:  -1549  94  12  671
1477483473.092:  -1548  94  12  671
1477483473.093:  -1542  94  12  671
1477483473.093:  -1526  94  12  671
1477483473.093:  -1505  94  12  671
1477483473.094:  -1486  94  12  671
1477483473.094:  -1466  94  12  671
1477483473.094:  -1438  94  12  671
1477483473.094:  -1406  94  12  671
1477483473.094:  -1377  94  12  671
1477483473.094:  -1354  94  12  671
1477483473.095:  -1332  94  12  671
1477483473.095:  -1305  94  12  671
1477483473.095:  -1281  94  12  671
1477483473.095:  -1268  94  12  671
1477483473.097:  -1263  94  12  671
1477483473.098:  -1255  94  12  671
1477483473.099:  -1240  94  12  671
1477483473.101:  -1220  94  12  671
1477483473.104:  -1203  94  12  671
1477483473.118:  -1189  94  12  671
1477483473.118:  -1170  94  12  671
1477483473.119:  -1146  94  12  671
1477483473.119:  -1116  94  12  671
1477483473.119:  -1085  94  12  671
1477483473.119:  -1052  94  12  671
1477483473.119:  -1021  94  12  671
1477483473.120:   -999  94  12  671
1477483473.120:   -991  94  12  671
1477483473.123:   -988  94  12  671
1477483473.123:   -981  94  12  671
1477483473.125:   -965  94  12  671
1477483473.141:   -948  94  12  671
