timestamp: ADC HeartRate4sAverage HeartRate30sAverage HRV8sAverage
1477482172.385:    202  76  10  785
1477482172.386:     98  76  10  785
1477482172.390:    -18  76  10  785
1477482172.391:    -80  76  10  785
1477482172.391:    -46  76  10  785
1477482172.391:     54  76  10  785
1477482172.392:    138  76  10  785
1477482172.392:    151  76  10  785
1477482172.392:    110  76  10  785
1477482172.392:     76  76  10  785
1477482172.392:     59  76  10  785
1477482172.392:     34  76  10  785
1477482172.393:      1  76  10  785
1477482172.393:     16  76  10  785
1477482172.393:    110  76  10  785
1477482172.393:    233  76  10  785
1477482172.393:    286  76  10  785
1477482172.394:    238  76  10  785
1477482172.394:    163  76  10  785
1477482172.394:    165  76  10  785
1477482172.394:    236  76  10  785
1477482172.395:    267  76  10  785
1477482172.395:    194  76  10  785
1477482172.395:     96  76  10  785
1477482172.395:    101  76  10  785
1477482172.395:    240  76  10  785
1477482172.395:    400  76  10  785
1477482172.395:    451  76  10  785
1477482172.397:    374  76  10  785
1477482172.398:    273  76  10  785
1477482172.399:    229  76  10  785
1477482172.402:    215  76  10  785
1477482172.411:    161  76  10  785
1477482172.412:     72  76  10  785
1477482172.412:     16  76  10  785
1477482172.413:     57  76  10  785
1477482172.413:    150  76  10  785
1477482172.414:    193  76  10  785
1477482172.415:    138  76  10  785
1477482172.421:     41  76  10  785
1477482172.432:     10  76  10  785
1477482172.432:     59  76  10  785
1477482172.433:    120  76  10  785
1477482172.433:    138  76  10  785
1477482172.434:    146  76  10  785
1477482172.434:    204  76  10  785
1477482172.434:    281  76  10  785
1477482172.435:    244  76  10  785
1477482172.435:    -19  76  10  785
1477482172.438:   -466  76  10  785
1477482172.439:   -953  76  10  785
1477482172.448:  -1413  76  10  785
1477482172.458:  -1907  76  10  785
1477482172.459:  -2509  76  10  785
1477482172.459:  -3160  76  10  785
1477482172.459:  -3696  76  10  785
1477482172.459:  -4001  76  10  785
1477482172.460:  -4092  76  10  785
1477482172.460:  -4028  76  10  785
1477482172.460:  -3789  76  10  785
1477482172.463:  -3310  76  10  785
1477482172.463:  -2634  76  10  785
1477482172.463:  -1931  76  10  785
1477482172.464:  -1349  76  10  785
1477482172.465:   -873  76  10  785
1477482172.472:   -391  76  10  785
1477482172.478:    128  76  10  785
1477482172.478:    538  76  10  785
1477482172.478:    672  76  10  785
1477482172.479:    530  76  10  785
1477482172.480:    283  76  10  785
1477482172.480:    103  76  10  785
1477482172.482:     37  76  10  785
1477482172.484:     58  76  10  785
1477482172.511:    149  76  10  785
1477482172.511:    304  76  10  785
1477482172.511:    494  76  10  785
1477482172.512:    661  76  10  785
1477482172.512:    774  76  10  785
1477482172.512:    845  76  10  785
1477482172.512:    907  76  10  785
1477482172.513:    945  76  10  785
1477482172.513:    925  76  10  785
1477482172.513:    849  76  10  785
1477482172.513:    761  76  10  785
1477482172.513:    700  76  10  785
1477482172.514:    695  76  10  785
1477482172.514:    763  76  10  785
1477482172.517:    894  76  10  785
1477482172.517:   1019  76  10  785
1477482172.518:   1060  76  10  785
1477482172.519:    990  76  10  785
1477482172.520:    874  76  10  785
1477482172.524:    812  76  10  785
1477482172.548:    829  76  10  785
1477482172.548:    863  76  10  785
1477482172.548:    859  76  10  785
1477482172.549:    849  76  10  785
1477482172.549:    879  76  10  785
1477482172.549:    934  76  10  785
1477482172.549:    945  76  10  785
1477482172.549:    877  76  10  785
1477482172.549:    759  76  10  785
1477482172.550:    657  76  10  785
1477482172.550:    617  76  10  785
1477482172.550:    643  76  10  785
1477482172.550:    710  76  10  785
1477482172.553:    792  76  10  785
1477482172.554:    852  76  10  785
1477482172.557:    858  76  10  785
1477482172.558:    816  76  10  785
1477482172.559:    759  76  10  785
1477482172.560:    695  76  10  785
1477482172.562:    620  76  10  785
1477482172.578:    547  76  10  785
1477482172.579:    519  76  10  785
1477482172.580:    541  76  10  785
1477482172.581:    577  76  10  785
1477482172.582:    577  76  10  785
1477482172.582:    549  76  10  785
1477482172.583:    552  76  10  785
1477482172.583:    604  76  10  785
1477482172.585:    633  75  10  787
1477482172.585:    573  75  10  787
1477482172.597:    461  75  10  787
1477482172.597:    418  75  10  787
1477482172.597:    502  75  10  787
1477482172.597:    642  75  10  787
1477482172.597:    704  75  10  787
1477482172.598:    642  75  10  787
1477482172.598:    533  75  10  787
1477482172.598:    493  75  10  787
1477482172.600:    524  75  10  787
1477482172.602:    530  75  10  787
1477482172.603:    449  75  10  787
1477482172.605:    347  75  10  787
1477482172.608:    330  75  10  787
1477482172.613:    426  75  10  787
1477482172.641:    541  75  10  787
1477482172.641:    571  75  10  787
1477482172.642:    511  75  10  787
1477482172.642:    451  75  10  787
1477482172.642:    441  75  10  787
1477482172.642:    436  75  10  787
1477482172.642:    386  75  10  787
1477482172.642:    334  75  10  787
1477482172.643:    353  75  10  787
1477482172.643:    440  75  10  787
1477482172.643:    500  75  10  787
1477482172.644:    464  75  10  787
1477482172.644:    378  75  10  787
1477482172.644:    351  75  10  787
1477482172.644:    401  75  10  787
1477482172.645:    431  75  10  787
1477482172.645:    363  75  10  787
1477482172.645:    244  75  10  787
1477482172.650:    189  75  10  787
1477482172.651:    239  75  10  787
1477482172.654:    332  75  10  787
1477482172.656:    380  75  10  787
1477482172.658:    353  75  10  787
1477482172.658:    289  75  10  787
1477482172.659:    234  75  10  787
1477482172.660:    195  75  10  787
1477482172.663:    169  75  10  787
1477482172.667:    169  75  10  787
1477482172.685:    203  75  10  787
1477482172.686:    267  75  10  787
1477482172.686:    340  75  10  787
1477482172.686:    399  75  10  787
1477482172.686:    418  75  10  787
1477482172.687:    397  75  10  787
1477482172.687:    369  75  10  787
1477482172.687:    358  75  10  787
1477482172.687:    363  75  10  787
1477482172.688:    358  75  10  787
1477482172.688:    343  75  10  787
1477482172.689:    351  75  10  787
1477482172.689:    411  75  10  787
1477482172.692:    487  75  10  787
1477482172.696:    511  75  10  787
1477482172.697:    461  75  10  787
1477482172.707:    390  75  10  787
1477482172.708:    353  75  10  787
1477482172.727:    339  75  10  787
1477482172.728:    307  75  10  787
1477482172.730:    259  75  10  787
1477482172.732:    244  75  10  787
1477482172.732:    308  75  10  787
1477482172.732:    413  75  10  787
1477482172.732:    473  75  10  787
1477482172.733:    439  75  10  787
1477482172.733:    355  75  10  787
1477482172.733:    296  75  10  787
1477482172.733:    292  75  10  787
1477482172.734:    311  75  10  787
1477482172.734:    308  75  10  787
1477482172.734:    280  75  10  787
1477482172.734:    276  75  10  787
1477482172.734:    343  75  10  787
1477482172.735:    458  75  10  787
1477482172.737:    529  75  10  787
1477482172.738:    479  75  10  787
1477482172.741:    336  75  10  787
1477482172.741:    199  75  10  787
1477482172.743:    157  75  10  787
1477482172.746:    194  75  10  787
1477482172.746:    222  75  10  787
1477482172.748:    198  75  10  787
1477482172.751:    176  75  10  787
1477482172.755:    218  75  10  787
1477482172.755:    297  75  10  787
1477482172.769:    325  75  10  787
1477482172.769:    271  75  10  787
1477482172.769:    194  75  10  787
1477482172.769:    175  75  10  787
1477482172.769:    216  75  10  787
1477482172.769:    242  75  10  787
1477482172.769:    212  75  10  787
1477482172.772:    187  75  10  787
1477482172.772:    237  75  10  787
1477482172.774:    338  75  10  787
1477482172.777:    390  75  10  787
1477482172.778:    339  75  10  787
1477482172.788:    239  75  10  787
1477482172.788:    191  75  10  787
1477482172.789:    229  75  10  787
1477482172.789:    298  75  10  787
1477482172.789:    328  75  10  787
1477482172.792:    323  75  10  787
1477482172.792:    330  75  10  787
1477482172.799:    358  75  10  787
1477482172.807:    368  75  10  787
1477482172.807:    338  75  10  787
1477482172.807:    287  75  10  787
1477482172.808:    243  75  10  787
1477482172.808:    213  75  10  787
1477482172.808:    197  75  10  787
1477482172.810:    208  75  10  787
1477482172.810:    278  75  10  787
1477482172.816:    388  75  10  787
1477482172.816:    460  75  10  787
1477482172.827:    423  75  10  787
1477482172.827:    305  75  10  787
1477482172.827:    199  75  10  787
1477482172.827:    168  75  10  787
1477482172.827:    198  75  10  787
1477482172.827:    236  75  10  787
1477482172.828:    254  75  10  787
1477482172.829:    272  75  10  787
1477482172.831:    315  75  10  787
1477482172.837:    372  75  10  787
1477482172.847:    406  75  10  787
1477482172.847:    403  75  10  787
1477482172.847:    370  75  10  787
1477482172.847:    318  75  10  787
1477482172.848:    262  75  10  787
1477482172.848:    226  75  10  787
1477482172.851:    230  75  10  787
1477482172.851:    273  75  10  787
1477482172.852:    327  75  10  787
1477482172.853:    357  75  10  787
1477482172.854:    351  75  10  787
1477482172.860:    328  75  10  787
1477482172.861:    308  75  10  787
1477482172.865:    278  75  10  787
1477482172.866:    246  75  10  787
1477482172.867:    251  75  10  787
1477482172.870:    316  75  10  787
1477482172.870:    400  75  10  787
1477482172.872:    442  75  10  787
1477482172.873:    434  75  10  787
1477482172.875:    435  75  10  787
1477482172.877:    475  75  10  787
1477482172.891:    489  75  10  787
1477482172.942:    383  75  10  787
1477482172.942:    195  75  10  787
1477482172.942:     97  75  10  787
1477482172.943:    198  75  10  787
1477482172.943:    387  75  10  787
1477482172.943:    454  75  10  787
1477482172.943:    335  75  10  787
1477482172.943:    197  75  10  787
1477482172.943:    227  75  10  787
1477482172.943:    405  75  10  787
1477482172.943:    517  75  10  787
1477482172.944:    431  75  10  787
1477482172.944:    250  75  10  787
1477482172.944:    180  75  10  787
1477482172.944:    283  75  10  787
1477482172.944:    433  75  10  787
1477482172.944:    485  75  10  787
1477482172.945:    428  75  10  787
1477482172.945:    356  75  10  787
1477482172.945:    336  75  10  787
1477482172.945:    330  75  10  787
1477482172.948:    275  75  10  787
1477482172.951:    198  75  10  787
1477482172.951:    178  75  10  787
1477482172.951:    239  75  10  787
1477482172.952:    331  75  10  787
1477482172.952:    368  75  10  787
1477482172.952:    333  75  10  787
1477482172.952:    278  75  10  787
1477482172.953:    265  75  10  787
1477482172.953:    277  75  10  787
1477482172.953:    255  75  10  787
1477482172.953:    185  75  10  787
1477482172.953:    129  75  10  787
1477482172.954:    149  75  10  787
1477482172.954:    231  75  10  787
1477482172.954:    307  75  10  787
1477482172.954:    338  75  10  787
1477482172.955:    351  75  10  787
1477482172.966:    385  75  10  787
1477482172.966:    405  75  10  787
1477482172.966:    334  75  10  787
1477482172.966:    185  75  10  787
1477482172.966:     94  75  10  787
1477482172.966:    172  75  10  787
1477482172.969:    369  75  10  787
1477482172.973:    518  75  10  787
1477482172.985:    510  75  10  787
1477482172.985:    411  75  10  787
1477482172.985:    361  75  10  787
1477482172.987:    412  75  10  787
1477482172.988:    473  75  10  787
1477482172.989:    450  75  10  787
1477482172.989:    363  75  10  787
1477482172.990:    307  75  10  787
1477482172.990:    320  75  10  787
1477482172.994:    358  75  10  787
1477482172.999:    373  75  10  787
1477482172.999:    369  75  10  787
1477482173.000:    377  75  10  787
1477482173.002:    394  75  10  787
1477482173.002:    365  75  10  787
1477482173.003:    278  75  10  787
1477482173.004:    203  75  10  787
1477482173.005:    219  75  10  787
1477482173.007:    314  75  10  787
1477482173.010:    409  75  10  787
1477482173.016:    440  75  10  787
1477482173.016:    422  75  10  787
1477482173.016:    398  75  10  787
1477482173.018:    385  75  10  787
1477482173.019:    354  75  10  787
1477482173.022:    291  75  10  787
1477482173.025:    230  75  10  787
1477482173.029:    225  75  10  787
1477482173.035:    285  75  10  787
1477482173.036:    377  75  10  787
1477482173.036:    458  75  10  787
1477482173.036:    513  75  10  787
1477482173.040:    535  75  10  787
1477482173.041:    522  75  10  787
1477482173.043:    474  75  10  787
1477482173.043:    418  75  10  787
1477482173.045:    399  75  10  787
1477482173.047:    440  75  10  787
1477482173.055:    508  75  10  787
1477482173.058:    545  75  10  787
1477482173.060:    536  75  10  787
1477482173.061:    508  75  10  787
1477482173.061:    486  75  10  787
1477482173.062:    472  75  10  787
1477482173.063:    441  75  10  787
1477482173.064:    379  75  10  787
1477482173.074:    315  75  10  787
1477482173.075:    289  75  10  787
1477482173.076:    314  75  10  787
1477482173.077:    369  75  10  787
1477482173.079:    435  75  10  787
1477482173.080:    495  75  10  787
1477482173.081:    521  75  10  787
1477482173.083:    484  75  10  787
1477482173.092:    384  75  10  787
1477482173.093:    244  75  10  787
1477482173.093:    124  75  10  787
1477482173.093:     63  75  10  787
1477482173.093:     49  75  10  787
1477482173.093:     45  75  10  787
1477482173.095:     45  75  10  787
1477482173.095:     56  75  10  787
1477482173.096:     75  75  10  787
1477482173.102:     83  75  10  787
1477482173.113:     65  75  10  787
1477482173.113:     18  75  10  787
1477482173.114:    -29  75  10  787
1477482173.114:    -48  75  10  787
1477482173.115:    -34  75  10  787
1477482173.115:      1  75  10  787
1477482173.115:     48  75  10  787
1477482173.116:     90  75  10  787
1477482173.117:    101  75  10  787
1477482173.117:     73  75  10  787
1477482173.119:     38  75  10  787
1477482173.121:     23  75  10  787
1477482173.132:     37  75  10  787
1477482173.132:     62  75  10  787
1477482173.132:     88  75  10  787
1477482173.132:    123  75  10  787
1477482173.132:    172  75  10  787
1477482173.133:    212  75  10  787
1477482173.135:    223  75  10  787
1477482173.137:    200  75  10  787
1477482173.139:    168  75  10  787
1477482173.140:    133  75  10  787
1477482173.145:     82  75  10  787
1477482173.146:     25  75  10  787
1477482173.154:      2  75  10  787
1477482173.155:     31  75  10  787
1477482173.156:     86  75  10  787
1477482173.156:    121  75  10  787
1477482173.157:    129  75  10  787
1477482173.157:    134  75  10  787
1477482173.160:    146  75  10  787
1477482173.161:    127  75  10  787
1477482173.173:     47  75  10  787
1477482173.174:    -49  75  10  787
1477482173.174:    -64  75  10  787
1477482173.175:     26  75  10  787
1477482173.176:    146  75  10  787
1477482173.176:    197  75  10  787
1477482173.177:    164  75  10  787
1477482173.177:    113  75  10  787
1477482173.178:    112  75  10  787
1477482173.180:    159  75  10  787
1477482173.190:    184  75  10  787
1477482173.190:    143  75  10  787
1477482173.191:     69  75  10  787
1477482173.191:     41  75  10  787
1477482173.191:    102  75  10  787
1477482173.191:    213  75  10  787
1477482173.192:    279  75  10  787
1477482173.200:    238  75  10  787
1477482173.209:    127  75  10  787
1477482173.209:     46  75  10  787
1477482173.210:     35  75  10  787
1477482173.210:     55  75  10  787
1477482173.210:     47  75  10  787
1477482173.210:      4  75  10  787
1477482173.214:    -20  75  10  787
1477482173.214:     15  75  10  787
1477482173.214:     87  75  10  787
1477482173.216:    147  75  10  787
1477482173.217:    176  75  10  787
1477482173.218:    186  75  10  787
1477482173.229:    176  75  10  787
1477482173.229:    143  75  10  787
1477482173.229:    120  75  10  787
1477482173.229:    142  75  10  787
1477482173.230:    161  75  10  787
1477482173.231:     63  75  10  787
1477482173.232:   -230  75  10  787
1477482173.234:   -673  75  10  787
1477482173.237:  -1148  75  10  787
1477482173.238:  -1596  75  10  787
1477482173.248:  -2091  75  10  787
1477482173.248:  -2708  75  10  787
1477482173.249:  -3381  75  10  787
1477482173.249:  -3923  75  10  787
1477482173.249:  -4202  75  10  787
1477482173.250:  -4223  75  10  787
1477482173.252:  -4056  75  10  787
1477482173.254:  -3729  75  10  787
1477482173.259:  -3227  75  10  787
1477482173.259:  -2576  75  10  787
1477482173.271:  -1902  75  10  787
1477482173.271:  -1342  75  10  787
1477482173.271:   -918  75  10  787
1477482173.271:   -549  75  10  787
1477482173.271:   -177  75  10  787
1477482173.271:    155  75  10  787
1477482173.272:    350  75  10  787
1477482173.274:    352  75  10  787
1477482173.276:    218  75  10  787
1477482173.277:     81  75  10  787
1477482173.280:     52  75  10  787
1477482173.281:    143  75  10  787
1477482173.291:    301  75  10  787
1477482173.291:    467  75  10  787
1477482173.291:    613  75  10  787
1477482173.291:    751  75  10  787
1477482173.291:    902  75  10  787
1477482173.295:   1045  75  10  787
1477482173.296:   1130  75  10  787
1477482173.301:   1117  75  10  787
1477482173.310:   1030  75  10  787
1477482173.311:    925  75  10  787
1477482173.312:    850  75  10  787
1477482173.313:    817  75  10  787
1477482173.314:    811  75  10  787
1477482173.315:    834  75  10  787
1477482173.327:    912  75  10  787
1477482173.329:   1041  75  10  787
1477482173.330:   1150  75  10  787
1477482173.331:   1150  75  10  787
1477482173.332:   1023  75  10  787
1477482173.332:    840  75  10  787
1477482173.333:    714  75  10  787
1477482173.334:    692  75  10  787
1477482173.334:    739  75  10  787
1477482173.364:    786  75  10  787
1477482173.365:    810  75  10  787
1477482173.367:    832  75  10  787
1477482173.378:    868  75  10  787
1477482173.378:    901  75  10  787
1477482173.378:    900  75  10  787
1477482173.379:    840  75  10  787
1477482173.379:    745  75  10  787
1477482173.379:    674  75  10  787
1477482173.379:    680  75  10  787
1477482173.379:    747  75  10  787
1477482173.380:    815  75  10  787
1477482173.380:    821  75  10  787
1477482173.380:    771  75  10  787
1477482173.380:    713  75  10  787
1477482173.380:    685  75  10  787
1477482173.380:    664  75  10  787
1477482173.380:    617  75  10  787
1477482173.380:    557  75  10  787
1477482173.381:    544  75  10  787
1477482173.381:    587  75  10  787
1477482173.381:    636  75  10  787
1477482173.381:    634  75  10  787
1477482173.381:    591  75  10  787
1477482173.381:    563  75  10  787
1477482173.385:    578  75  10  787
1477482173.386:    588  75  10  787
1477482173.386:    541  75  10  787
1477482173.386:    457  75  10  787
1477482173.387:    408  75  10  787
1477482173.390:    439  75  10  787
1477482173.390:    521  75  10  787
1477482173.392:    600  75  10  787
1477482173.393:    642  75  10  787
1477482173.396:    634  75  10  787
1477482173.411:    585  75  10  787
1477482173.418:    513  75  10  787
1477482173.418:    440  75  10  787
1477482173.419:    397  75  10  787
1477482173.430:    391  75  10  787
1477482173.431:    404  75  10  787
1477482173.431:    417  75  10  787
1477482173.431:    438  75  10  787
1477482173.432:    470  75  10  787
1477482173.432:    499  75  10  787
1477482173.433:    487  75  10  787
1477482173.433:    430  75  10  787
1477482173.433:    341  75  10  787
1477482173.434:    251  75  10  787
1477482173.434:    196  75  10  787
1477482173.434:    203  75  10  787
1477482173.434:    259  75  10  787
1477482173.435:    340  75  10  787
1477482173.435:    401  75  10  787
1477482173.435:    407  75  10  787
1477482173.436:    359  75  10  787
1477482173.438:    292  75  10  787
1477482173.440:    236  75  10  787
1477482173.445:    205  75  10  787
1477482173.445:    195  75  10  787
1477482173.447:    194  75  10  787
1477482173.448:    190  75  10  787
1477482173.449:    195  75  10  787
1477482173.452:    228  75  10  787
1477482173.454:    288  75  10  787
1477482173.459:    336  75  10  787
1477482173.459:    344  75  10  787
1477482173.470:    303  75  10  787
1477482173.471:    246  75  10  787
1477482173.472:    219  75  10  787
1477482173.472:    250  75  10  787
1477482173.473:    322  75  10  787
1477482173.477:    407  75  10  787
1477482173.487:    480  75  10  787
1477482173.487:    523  75  10  787
1477482173.488:    520  75  10  787
1477482173.488:    480  75  10  787
1477482173.488:    419  75  10  787
1477482173.488:    352  75  10  787
1477482173.488:    292  75  10  787
1477482173.488:    274  75  10  787
1477482173.488:    313  75  10  787
1477482173.491:    393  75  10  787
1477482173.491:    465  75  10  787
1477482173.493:    477  75  10  787
1477482173.498:    436  75  10  787
1477482173.498:    404  75  10  787
1477482173.506:    413  75  10  787
1477482173.506:    431  75  10  787
1477482173.506:    410  75  10  787
1477482173.506:    358  75  10  787
1477482173.508:    338  75  10  787
1477482173.509:    381  75  10  787
1477482173.511:    454  75  10  787
1477482173.514:    492  75  10  787
1477482173.524:    482  75  10  787
1477482173.524:    462  75  10  787
1477482173.524:    458  75  10  787
1477482173.524:    433  75  10  787
1477482173.524:    365  75  10  787
1477482173.525:    289  75  10  787
1477482173.527:    271  75  10  787
1477482173.528:    325  75  10  787
1477482173.533:    390  75  10  787
1477482173.533:    402  75  10  787
1477482173.534:    357  75  10  787
1477482173.537:    313  75  10  787
1477482173.543:    314  75  10  787
1477482173.543:    337  75  10  787
1477482173.544:    336  75  10  787
1477482173.549:    298  75  10  787
1477482173.549:    258  75  10  787
1477482173.549:    246  75  10  787
1477482173.550:    280  75  10  787
1477482173.552:    347  75  10  787
1477482173.562:    404  75  10  787
1477482173.562:    410  75  10  787
1477482173.562:    351  75  10  787
1477482173.562:    261  75  10  787
1477482173.562:    205  75  10  787
1477482173.563:    230  75  10  787
1477482173.570:    322  75  10  787
1477482173.571:    415  75  10  787
1477482173.574:    456  75  10  787
1477482173.574:    456  75  10  787
1477482173.576:    450  75  10  787
1477482173.577:    452  75  10  787
1477482173.578:    449  75  10  787
1477482173.583:    414  75  10  787
1477482173.583:    339  75  10  787
1477482173.583:    253  75  10  787
1477482173.587:    212  75  10  787
1477482173.587:    247  75  10  787
1477482173.589:    337  75  10  787
1477482173.590:    423  75  10  787
1477482173.607:    450  75  10  787
1477482173.608:    411  75  10  787
1477482173.608:    358  75  10  787
1477482173.609:    326  75  10  787
1477482173.609:    302  75  10  787
1477482173.609:    261  75  10  787
1477482173.610:    213  75  10  787
1477482173.610:    189  75  10  787
1477482173.611:    198  75  10  787
1477482173.612:    228  75  10  787
1477482173.615:    263  75  10  787
1477482173.616:    295  75  10  787
1477482173.629:    319  75  10  787
1477482173.632:    302  75  10  787
1477482173.633:    221  75  10  787
1477482173.634:    121  75  10  787
1477482173.634:     93  75  10  787
1477482173.635:    179  75  10  787
1477482173.645:    297  75  10  787
1477482173.646:    343  75  10  787
1477482173.646:    292  75  10  787
1477482173.646:    221  75  10  787
1477482173.647:    209  75  10  787
1477482173.647:    252  75  10  787
1477482173.647:    265  75  10  787
1477482173.647:    211  75  10  787
1477482173.647:    142  75  10  787
1477482173.648:    138  75  10  787
1477482173.648:    212  75  10  787
1477482173.649:    318  75  10  787
1477482173.656:    400  75  10  787
1477482173.656:    436  75  10  787
1477482173.663:    428  75  10  787
1477482173.663:    377  75  10  787
1477482173.663:    289  75  10  787
1477482173.663:    212  75  10  787
1477482173.664:    195  75  10  787
1477482173.666:    243  75  10  787
1477482173.668:    297  75  10  787
1477482173.670:    312  75  10  787
1477482173.672:    299  75  10  787
1477482173.673:    292  75  10  787
1477482173.679:    299  75  10  787
1477482173.759:    290  75  10  787
1477482173.759:    245  75  10  787
1477482173.759:    192  75  10  787
1477482173.759:    171  75  10  787
1477482173.759:    176  75  10  787
1477482173.760:    170  75  10  787
1477482173.760:    158  75  10  787
1477482173.760:    190  75  10  787
1477482173.760:    281  75  10  787
1477482173.760:    365  75  10  787
1477482173.761:    365  75  10  787
1477482173.761:    283  75  10  787
1477482173.761:    199  75  10  787
1477482173.761:    177  75  10  787
1477482173.761:    206  75  10  787
1477482173.762:    227  75  10  787
1477482173.762:    226  75  10  787
1477482173.763:    230  75  10  787
1477482173.763:    246  75  10  787
1477482173.763:    235  75  10  787
1477482173.763:    175  75  10  787
1477482173.764:     92  75  10  787
1477482173.764:     35  75  10  787
1477482173.765:     23  75  10  787
1477482173.765:     45  75  10  787
1477482173.765:     85  75  10  787
1477482173.765:    130  75  10  787
1477482173.765:    174  75  10  787
1477482173.765:    199  75  10  787
1477482173.777:    200  75  10  787
1477482173.777:    200  75  10  787
1477482173.778:    210  75  10  787
1477482173.778:    192  75  10  787
1477482173.778:    125  75  10  787
1477482173.778:     52  75  10  787
1477482173.778:     53  75  10  787
1477482173.779:    140  75  10  787
1477482173.779:    257  75  10  787
1477482173.779:    327  75  10  787
1477482173.779:    331  75  10  787
1477482173.780:    300  75  10  787
1477482173.780:    267  75  10  787
1477482173.780:    221  75  10  787
1477482173.780:    156  75  10  787
1477482173.780:    100  75  10  787
1477482173.781:     90  75  10  787
1477482173.781:    128  75  10  787
1477482173.781:    189  75  10  787
1477482173.781:    251  75  10  787
1477482173.781:    291  75  10  787
1477482173.781:    290  75  10  787
1477482173.782:    258  75  10  787
1477482173.782:    229  75  10  787
1477482173.784:    240  75  10  787
1477482173.784:    277  75  10  787
1477482173.786:    292  75  10  787
1477482173.790:    258  75  10  787
1477482173.795:    233  75  10  787
1477482173.796:    285  75  10  787
1477482173.796:    390  75  10  787
1477482173.797:    439  75  10  787
1477482173.797:    373  75  10  787
1477482173.800:    245  75  10  787
1477482173.801:    152  75  10  787
1477482173.806:    136  75  10  787
1477482173.814:    157  75  10  787
1477482173.815:    166  75  10  787
1477482173.815:    173  75  10  787
1477482173.815:    210  75  10  787
1477482173.815:    267  75  10  787
1477482173.815:    292  75  10  787
1477482173.822:    272  75  10  787
1477482173.822:    234  75  10  787
1477482173.824:    209  75  10  787
1477482173.825:    204  75  10  787
1477482173.825:    219  75  10  787
1477482173.832:    258  75  10  787
1477482173.834:    327  75  10  787
1477482173.834:    410  75  10  787
1477482173.834:    477  75  10  787
1477482173.835:    514  75  10  787
1477482173.838:    525  75  10  787
1477482173.838:    505  75  10  787
1477482173.841:    428  75  10  787
1477482173.843:    313  75  10  787
1477482173.855:    236  75  10  787
1477482173.856:    263  75  10  787
1477482173.857:    363  75  10  787
1477482173.858:    434  75  10  787
1477482173.858:    406  75  10  787
1477482173.859:    316  75  10  787
1477482173.859:    260  75  10  787
1477482173.864:    269  75  10  787
1477482173.873:    280  75  10  787
1477482173.873:    240  75  10  787
1477482173.873:    186  75  10  787
1477482173.873:    199  75  10  787
1477482173.874:    283  75  10  787
1477482173.874:    368  75  10  787
1477482173.875:    393  75  10  787
1477482173.877:    374  75  10  787
1477482173.878:    367  75  10  787
1477482173.879:    378  75  10  787
1477482173.883:    338  75  10  787
1477482173.883:    208  75  10  787
1477482173.884:     60  75  10  787
1477482173.888:     -1  75  10  787
1477482173.889:     47  75  10  787
1477482173.891:    122  75  10  787
1477482173.891:    138  75  10  787
1477482173.893:     93  75  10  787
1477482173.896:     46  75  10  787
1477482173.898:     26  75  10  787
1477482173.925:      0  75  10  787
1477482173.925:    -64  75  10  787
1477482173.925:   -137  75  10  787
1477482173.925:   -159  75  10  787
1477482173.925:   -118  75  10  787
1477482173.925:    -59  75  10  787
1477482173.926:    -24  75  10  787
1477482173.926:     -2  75  10  787
1477482173.926:     29  75  10  787
1477482173.926:     78  75  10  787
1477482173.926:    107  75  10  787
1477482173.926:     84  75  10  787
1477482173.927:     29  75  10  787
1477482173.927:     -5  75  10  787
1477482173.927:     19  75  10  787
1477482173.929:     88  75  10  787
1477482173.930:    149  75  10  787
1477482173.935:    157  75  10  787
1477482173.935:    116  75  10  787
1477482173.937:     81  75  10  787
1477482173.938:     98  75  10  787
1477482173.944:    140  75  10  787
1477482173.949:    149  75  10  787
1477482173.949:    101  75  10  787
1477482173.949:     52  75  10  787
1477482173.949:     65  75  10  787
1477482173.950:    142  75  10  787
1477482173.951:    208  75  10  787
1477482173.954:    189  75  10  787
1477482173.957:    102  75  10  787
1477482173.958:     29  75  10  787
1477482173.963:     16  75  10  787
1477482173.963:     38  75  10  787
1477482173.964:     59  75  10  787
1477482173.966:     81  75  10  787
1477482173.971:    124  75  10  787
1477482173.983:    199  75  10  787
1477482173.983:    273  75  10  787
1477482173.984:    303  75  10  787
1477482173.984:    272  75  10  787
1477482173.985:    204  75  10  787
1477482173.985:    117  75  10  787
1477482174.005:     38  75  10  787
1477482174.007:      3  75  10  787
1477482174.007:     36  75  10  787
1477482174.009:    119  75  10  787
1477482174.030:    202  75  10  787
1477482174.030:    246  75  10  787
1477482174.030:    248  75  10  787
1477482174.031:    233  75  10  787
1477482174.031:    218  75  10  787
1477482174.031:    184  75  10  787
1477482174.031:    106  75  10  787
1477482174.031:      4  75  10  787
1477482174.031:    -68  75  10  787
1477482174.031:    -82  75  10  787
1477482174.032:    -43  75  10  787
1477482174.032:     14  75  10  787
1477482174.032:     65  75  10  787
1477482174.032:    108  75  10  787
1477482174.032:    158  75  10  787
1477482174.032:    200  75  10  787
1477482174.033:    210  75  10  787
1477482174.033:    177  75  10  787
1477482174.033:     99  75  10  787
1477482174.033:    -35  75  10  787
1477482174.033:   -246  75  10  787
1477482174.033:   -546  75  10  787
1477482174.034:   -929  75  10  787
1477482174.035:  -1388  75  10  787
1477482174.036:  -1928  75  10  787
1477482174.038:  -2534  75  10  787
1477482174.040:  -3139  75  10  787
1477482174.044:  -3624  75  10  787
1477482174.056:  -3901  75  10  787
1477482174.057:  -3971  75  10  787
1477482174.057:  -3874  75  10  787
1477482174.057:  -3593  75  10  787
1477482174.057:  -3070  75  10  787
1477482174.059:  -2323  75  10  787
1477482174.059:  -1518  75  10  787
1477482174.059:   -867  75  10  787
1477482174.060:   -452  75  10  787
1477482174.063:   -156  75  10  787
1477482174.075:    177  75  10  787
1477482174.075:    550  75  10  787
1477482174.075:    796  75  10  787
1477482174.076:    791  75  10  787
1477482174.076:    586  75  10  787
1477482174.076:    359  75  10  787
1477482174.080:    253  75  10  787
1477482174.080:    277  75  10  787
1477482174.080:    347  75  10  787
1477482174.085:    403  75  10  787
1477482174.094:    458  75  10  787
1477482174.095:    550  75  10  787
1477482174.096:    686  75  10  787
1477482174.096:    848  75  10  787
1477482174.097:   1001  75  10  787
1477482174.098:   1101  75  10  787
1477482174.099:   1119  75  10  787
1477482174.099:   1056  75  10  787
1477482174.100:    927  75  10  787
1477482174.102:    770  75  10  787
1477482174.113:    655  75  10  787
1477482174.113:    647  75  10  787
1477482174.114:    748  75  10  787
1477482174.114:    882  75  10  787
1477482174.115:    956  75  10  787
1477482174.116:    941  75  10  787
1477482174.117:    890  75  10  787
1477482174.117:    867  75  10  787
1477482174.121:    849  75  10  787
1477482174.121:    772  75  10  787
1477482174.123:    655  75  10  787
1477482174.125:    609  75  10  787
1477482174.140:    710  75  10  787
1477482174.141:    886  75  10  787
1477482174.141:    979  75  10  787
1477482174.142:    914  75  10  787
1477482174.142:    771  75  10  787
1477482174.143:    690  75  10  787
1477482174.143:    702  75  10  787
1477482174.144:    717  75  10  787
1477482174.158:    667  75  10  787
1477482174.158:    591  75  10  787
1477482174.158:    573  75  10  787
1477482174.158:    637  75  10  787
1477482174.158:    718  75  10  787
1477482174.158:    751  75  10  787
1477482174.158:    737  75  10  787
1477482174.159:    722  75  10  787
1477482174.159:    728  75  10  787
1477482174.163:    710  75  10  787
1477482174.164:    634  75  10  787
1477482174.167:    541  75  10  787
1477482174.176:    507  75  10  787
1477482174.177:    554  75  10  787
1477482174.177:    624  75  10  790
1477482174.177:    634  75  10  790
1477482174.177:    557  75  10  790
1477482174.177:    448  75  10  790
1477482174.181:    386  75  10  790
1477482174.181:    388  75  10  790
1477482174.183:    418  75  10  790
1477482174.184:    436  75  10  790
1477482174.187:    441  75  10  790
1477482174.188:    451  75  10  790
1477482174.190:    478  75  10  790
1477482174.195:    508  75  10  790
1477482174.206:    515  75  10  790
1477482174.206:    486  75  10  790
1477482174.206:    434  75  10  790
1477482174.206:    372  75  10  790
1477482174.206:    309  75  10  790
1477482174.207:    259  75  10  790
1477482174.209:    249  75  10  790
1477482174.209:    286  75  10  790
1477482174.211:    357  75  10  790
1477482174.212:    411  75  10  790
1477482174.214:    403  75  10  790
1477482174.216:    331  75  10  790
1477482174.219:    244  75  10  790
1477482174.223:    182  75  10  790
1477482174.223:    152  75  10  790
1477482174.224:    147  75  10  790
1477482174.238:    173  75  10  790
1477482174.239:    230  75  10  790
1477482174.239:    307  75  10  790
1477482174.239:    375  75  10  790
1477482174.239:    417  75  10  790
1477482174.239:    436  75  10  790
1477482174.239:    445  75  10  790
1477482174.239:    426  75  10  790
1477482174.241:    351  75  10  790
1477482174.246:    248  75  10  790
1477482174.247:    194  75  10  790
1477482174.251:    228  75  10  790
1477482174.259:    303  75  10  790
1477482174.260:    343  75  10  790
1477482174.261:    326  75  10  790
1477482174.261:    290  75  10  790
1477482174.262:    282  75  10  790
1477482174.263:    292  75  10  790
1477482174.264:    275  75  10  790
1477482174.266:    227  75  10  790
1477482174.266:    197  75  10  790
1477482174.267:    219  75  10  790
1477482174.268:    281  75  10  790
1477482174.270:    355  75  10  790
1477482174.288:    413  75  10  790
1477482174.289:    440  75  10  790
1477482174.290:    425  75  10  790
1477482174.291:    378  75  10  790
1477482174.292:    315  75  10  790
1477482174.293:    264  75  10  790
1477482174.294:    248  75  10  790
1477482174.295:    274  75  10  790
1477482174.296:    334  75  10  790
1477482174.296:    419  75  10  790
1477482174.297:    501  75  10  790
1477482174.298:    550  75  10  790
1477482174.299:    554  75  10  790
1477482174.299:    540  75  10  790
1477482174.313:    520  75  10  790
1477482174.313:    493  75  10  790
1477482174.313:    458  75  10  790
1477482174.313:    434  75  10  790
1477482174.314:    438  75  10  790
1477482174.314:    471  75  10  790
1477482174.314:    499  75  10  790
1477482174.314:    490  75  10  790
1477482174.316:    457  75  10  790
1477482174.318:    445  75  10  790
1477482174.320:    452  75  10  790
1477482174.323:    437  75  10  790
1477482174.332:    376  75  10  790
1477482174.332:    313  75  10  790
1477482174.332:    332  75  10  790
1477482174.333:    461  75  10  790
1477482174.333:    618  75  10  790
1477482174.333:    683  75  10  790
1477482174.367:    611  75  10  790
1477482174.367:    494  75  10  790
1477482174.371:    447  75  10  790
1477482174.371:    489  75  10  790
1477482174.371:    536  75  10  790
1477482174.371:    516  75  10  790
1477482174.372:    446  75  10  790
1477482174.372:    419  75  10  790
1477482174.372:    475  75  10  790
1477482174.381:    548  75  10  790
1477482174.382:    550  75  10  790
1477482174.382:    473  75  10  790
1477482174.382:    394  75  10  790
1477482174.383:    362  75  10  790
1477482174.383:    361  75  10  790
1477482174.383:    350  75  10  790
1477482174.383:    339  75  10  790
1477482174.383:    375  75  10  790
1477482174.383:    460  75  10  790
1477482174.383:    527  75  10  790
1477482174.384:    510  75  10  790
1477482174.384:    434  75  10  790
1477482174.384:    371  75  10  790
1477482174.384:    341  75  10  790
1477482174.384:    304  75  10  790
1477482174.388:    239  75  10  790
1477482174.388:    200  75  10  790
1477482174.388:    248  75  10  790
1477482174.392:    375  75  10  790
1477482174.392:    489  75  10  790
1477482174.394:    497  75  10  790
1477482174.396:    406  75  10  790
1477482174.411:    309  75  10  790
1477482174.412:    276  75  10  790
1477482174.412:    308  75  10  790
1477482174.412:    347  75  10  790
1477482174.413:    339  75  10  790
1477482174.413:    290  75  10  790
1477482174.414:    262  75  10  790
1477482174.414:    313  75  10  790
1477482174.415:    415  75  10  790
1477482174.416:    477  75  10  790
1477482174.422:    427  75  10  790
1477482174.422:    298  75  10  790
1477482174.429:    199  75  10  790
1477482174.429:    204  75  10  790
1477482174.429:    279  75  10  790
1477482174.429:    329  75  10  790
1477482174.431:    325  75  10  790
1477482174.434:    323  75  10  790
1477482174.434:    378  75  10  790
1477482174.435:    454  75  10  790
1477482174.438:    476  75  10  790
1477482174.439:    414  75  10  790
1477482174.448:    321  75  10  790
1477482174.448:    270  75  10  790
1477482174.448:    292  75  10  790
1477482174.448:    359  75  10  790
1477482174.452:    432  75  10  790
1477482174.452:    477  75  10  790
1477482174.455:    471  75  10  790
1477482174.455:    419  75  10  790
1477482174.462:    369  75  10  790
1477482174.462:    355  75  10  790
1477482174.463:    351  75  10  790
1477482174.464:    314  75  10  790
1477482174.466:    248  75  10  790
1477482174.469:    218  75  10  790
1477482174.470:    276  75  10  790
1477482174.471:    381  75  10  790
1477482174.475:    446  75  10  790
1477482174.477:    424  75  10  790
1477482174.479:    357  75  10  790
1477482174.568:    306  75  10  790
1477482174.568:    272  75  10  790
1477482174.569:    242  75  10  790
1477482174.569:    225  75  10  790
1477482174.569:    245  75  10  790
1477482174.569:    292  75  10  790
1477482174.570:    331  75  10  790
1477482174.570:    345  75  10  790
1477482174.570:    339  75  10  790
1477482174.570:    321  75  10  790
1477482174.570:    286  75  10  790
1477482174.570:    225  75  10  790
1477482174.571:    170  75  10  790
1477482174.571:    158  75  10  790
1477482174.571:    177  75  10  790
1477482174.571:    186  75  10  790
1477482174.571:    182  75  10  790
1477482174.571:    206  75  10  790
1477482174.571:    267  75  10  790
1477482174.572:    317  75  10  790
1477482174.572:    299  75  10  790
1477482174.572:    220  75  10  790
1477482174.572:    155  75  10  790
1477482174.572:    154  75  10  790
1477482174.572:    196  75  10  790
1477482174.573:    222  75  10  790
1477482174.573:    224  75  10  790
1477482174.573:    224  75  10  790
1477482174.573:    234  75  10  790
1477482174.573:    227  75  10  790
1477482174.573:    196  75  10  790
1477482174.573:    157  75  10  790
1477482174.574:    135  75  10  790
1477482174.574:    143  75  10  790
1477482174.574:    178  75  10  790
1477482174.574:    226  75  10  790
1477482174.574:    280  75  10  790
1477482174.574:    324  75  10  790
1477482174.574:    347  75  10  790
1477482174.575:    343  75  10  790
1477482174.575:    314  75  10  790
1477482174.575:    248  75  10  790
1477482174.575:    144  75  10  790
1477482174.575:     47  75  10  790
1477482174.575:     28  75  10  790
1477482174.576:     97  75  10  790
1477482174.576:    187  75  10  790
1477482174.578:    220  75  10  790
1477482174.579:    195  75  10  790
1477482174.579:    180  75  10  790
1477482174.579:    221  75  10  790
1477482174.579:    273  75  10  790
1477482174.583:    260  75  10  790
1477482174.593:    179  75  10  790
1477482174.593:    113  75  10  790
1477482174.593:    127  75  10  790
1477482174.593:    194  75  10  790
1477482174.593:    248  75  10  790
1477482174.594:    256  75  10  790
1477482174.597:    240  75  10  790
1477482174.597:    224  75  10  790
1477482174.599:    187  75  10  790
1477482174.600:     91  75  10  790
1477482174.601:    -28  75  10  790
1477482174.604:    -79  75  10  790
1477482174.615:    -12  75  10  790
1477482174.615:    115  75  10  790
1477482174.615:    202  75  10  790
1477482174.615:    208  75  10  790
1477482174.616:    189  75  10  790
1477482174.616:    223  75  10  790
1477482174.618:    307  75  10  790
1477482174.621:    349  75  10  790
1477482174.625:    299  75  10  790
1477482174.625:    215  75  10  790
1477482174.626:    207  75  10  790
1477482174.628:    299  75  10  790
1477482174.642:    415  75  10  790
1477482174.643:    464  75  10  790
1477482174.644:    429  75  10  790
1477482174.649:    376  75  10  790
1477482174.649:    372  75  10  790
1477482174.649:    386  75  10  790
1477482174.663:    356  75  10  790
1477482174.663:    275  75  10  790
1477482174.663:    217  75  10  790
1477482174.664:    243  75  10  790
1477482174.664:    337  75  10  790
1477482174.664:    413  75  10  790
1477482174.664:    410  75  10  790
1477482174.664:    353  75  10  790
1477482174.665:    321  75  10  790
1477482174.665:    334  75  10  790
1477482174.665:    339  75  10  790
1477482174.665:    285  75  10  790
1477482174.666:    198  75  10  790
1477482174.668:    149  75  10  790
1477482174.669:    178  75  10  790
1477482174.670:    237  75  10  790
1477482174.676:    241  75  10  790
1477482174.676:    154  75  10  790
1477482174.683:     32  75  10  790
1477482174.683:    -45  75  10  790
1477482174.683:    -55  75  10  790
1477482174.684:    -28  75  10  790
1477482174.684:      2  75  10  790
1477482174.688:     24  75  10  790
1477482174.689:     41  75  10  790
1477482174.694:     61  75  10  790
1477482174.694:     78  75  10  790
1477482174.696:     72  75  10  790
1477482174.699:     35  75  10  790
1477482174.700:    -32  75  10  790
1477482174.720:   -119  75  10  790
1477482174.720:   -181  75  10  790
1477482174.721:   -193  75  10  790
1477482174.721:   -155  75  10  790
1477482174.721:    -97  75  10  790
1477482174.722:    -35  75  10  790
1477482174.722:     30  75  10  790
1477482174.722:     81  75  10  790
1477482174.722:     76  75  10  790
1477482174.723:     -5  75  10  790
1477482174.723:   -129  75  10  790
1477482174.724:   -217  75  10  790
1477482174.726:   -224  75  10  790
1477482174.726:   -182  75  10  790
1477482174.730:   -157  75  10  790
1477482174.730:   -159  75  10  790
1477482174.731:   -141  75  10  790
1477482174.734:    -83  75  10  790
1477482174.735:    -30  75  10  790
1477482174.748:    -39  75  10  790
1477482174.760:   -118  75  10  790
1477482174.762:   -202  75  10  790
1477482174.764:   -232  75  10  790
1477482174.765:   -200  75  10  790
1477482174.765:   -147  75  10  790
1477482174.766:    -94  75  10  790
1477482174.767:    -50  75  10  790
1477482174.768:    -36  75  10  790
1477482174.769:    -75  75  10  790
1477482174.769:   -144  75  10  790
1477482174.769:   -191  75  10  790
1477482174.770:   -180  75  10  790
1477482174.770:   -142  75  10  790
1477482174.770:   -131  75  10  790
1477482174.771:   -155  75  10  790
1477482174.771:   -157  75  10  790
1477482174.784:    -86  75  10  790
1477482174.784:     29  75  10  790
1477482174.784:    102  75  10  790
1477482174.784:     96  75  10  790
1477482174.784:     36  75  10  790
1477482174.784:    -44  75  10  790
1477482174.784:   -127  75  10  790
1477482174.784:   -184  75  10  790
1477482174.787:   -175  75  10  790
1477482174.789:    -84  75  10  790
1477482174.790:     28  75  10  790
1477482174.794:     43  75  10  790
1477482174.805:    -80  75  10  790
1477482174.805:   -244  75  10  790
1477482174.805:   -309  75  10  790
1477482174.805:   -256  75  10  790
1477482174.805:   -190  75  10  790
1477482174.805:   -212  75  10  790
1477482174.809:   -294  75  10  790
1477482174.810:   -323  75  10  790
1477482174.813:   -236  75  10  790
1477482174.814:   -102  75  10  790
1477482174.816:    -51  75  10  790
1477482174.816:   -160  75  10  790
1477482174.823:   -409  75  10  790
1477482174.824:   -735  75  10  790
1477482174.838:  -1073  75  10  790
1477482174.839:  -1379  75  10  790
1477482174.840:  -1656  75  10  790
1477482174.841:  -1970  75  10  790
1477482174.841:  -2368  75  10  790
1477482174.842:  -2817  75  10  790
1477482174.843:  -3199  75  10  790
1477482174.843:  -3401  75  10  790
1477482174.844:  -3404  75  10  790
1477482174.846:  -3265  75  10  790
1477482174.858:  -2995  75  10  790
1477482174.859:  -2548  75  10  790
1477482174.859:  -1917  75  10  790
1477482174.860:  -1232  75  10  790
1477482174.860:   -661  75  10  790
1477482174.862:   -265  75  10  790
1477482174.863:     32  75  10  790
1477482174.864:    306  75  10  790
1477482174.866:    507  75  10  790
1477482174.866:    513  75  10  790
1477482174.867:    298  75  10  790
1477482174.868:      4  75  10  790
1477482174.868:   -165  75  10  790
1477482174.868:   -130  75  10  790
1477482174.872:     34  75  10  790
1477482174.872:    195  75  10  790
1477482174.876:    282  75  10  790
1477482174.877:    312  75  10  790
1477482174.893:    346  75  10  790
1477482174.893:    406  75  10  790
1477482174.893:    461  75  10  790
1477482174.894:    474  75  10  790
1477482174.894:    445  75  10  790
1477482174.894:    413  75  10  790
1477482174.894:    416  75  10  790
1477482174.894:    447  75  10  790
1477482174.895:    454  75  10  790
1477482174.895:    410  75  10  790
1477482174.900:    356  75  10  790
1477482174.900:    349  75  10  790
1477482174.902:    398  75  10  790
1477482174.903:    448  75  10  790
1477482174.904:    443  75  10  790
1477482174.909:    380  75  10  790
1477482174.919:    310  75  10  790
1477482174.921:    285  75  10  790
1477482174.922:    311  75  10  790
1477482174.922:    352  75  10  790
1477482174.923:    370  75  10  790
1477482174.924:    352  75  10  790
1477482174.924:    305  75  10  790
1477482174.925:    254  75  10  790
1477482174.932:    230  75  10  790
1477482174.933:    245  75  10  790
1477482174.938:    285  75  10  790
1477482174.938:    338  75  10  790
1477482174.938:    381  75  10  790
1477482174.938:    395  75  10  790
1477482174.938:    372  75  10  790
1477482174.938:    324  75  10  790
1477482174.941:    269  75  10  790
1477482174.945:    224  75  10  790
1477482174.946:    196  75  10  790
1477482174.951:    189  75  10  790
1477482174.958:    212  75  10  790
1477482174.959:    273  75  10  790
1477482174.959:    347  75  10  790
1477482174.960:    375  75  10  790
1477482174.961:    322  75  10  790
1477482174.961:    230  75  10  790
1477482174.963:    175  75  10  790
1477482174.964:    193  75  10  790
1477482174.965:    233  75  10  790
1477482174.966:    228  75  10  790
1477482174.977:    177  75  10  790
1477482174.978:    160  75  10  793
1477482174.979:    235  75  10  793
1477482174.979:    336  75  10  793
1477482174.979:    337  75  10  793
1477482174.980:    198  75  10  793
1477482174.980:     14  75  10  793
1477482174.981:    -81  75  10  793
1477482174.988:    -58  75  10  793
1477482174.989:     -1  75  10  793
1477482175.005:      3  75  10  793
1477482175.006:    -21  75  10  793
1477482175.007:      9  75  10  793
1477482175.007:    111  75  10  793
1477482175.008:    206  75  10  793
1477482175.009:    215  75  10  793
1477482175.010:    145  75  10  793
1477482175.010:     66  75  10  793
1477482175.011:     27  75  10  793
1477482175.015:     17  75  10  793
1477482175.024:      0  75  10  793
1477482175.025:    -26  75  10  793
1477482175.026:    -33  75  10  793
1477482175.026:    -20  75  10  793
1477482175.027:    -27  75  10  793
1477482175.027:    -77  75  10  793
1477482175.031:   -148  75  10  793
1477482175.033:   -200  75  10  793
1477482175.046:   -200  75  10  793
1477482175.046:   -160  75  10  793
1477482175.046:   -109  75  10  793
1477482175.047:    -73  75  10  793
1477482175.047:    -48  75  10  793
1477482175.047:    -21  75  10  793
1477482175.047:      8  75  10  793
1477482175.047:     18  75  10  793
1477482175.047:    -13  75  10  793
1477482175.047:    -86  75  10  793
1477482175.047:   -152  75  10  793
1477482175.048:   -161  75  10  793
1477482175.048:   -110  75  10  793
1477482175.048:    -55  75  10  793
1477482175.051:    -41  75  10  793
1477482175.055:    -61  75  10  793
1477482175.055:    -75  75  10  793
1477482175.056:    -69  75  10  793
1477482175.058:    -72  75  10  793
1477482175.059:   -124  75  10  793
1477482175.062:   -204  75  10  793
1477482175.064:   -246  75  10  793
1477482175.068:   -200  75  10  793
1477482175.070:    -90  75  10  793
1477482175.093:     27  75  10  793
1477482175.093:    104  75  10  793
1477482175.093:    135  75  10  793
1477482175.094:    137  75  10  793
1477482175.094:    125  75  10  793
1477482175.094:     90  75  10  793
1477482175.095:     32  75  10  793
1477482175.095:    -29  75  10  793
1477482175.095:    -56  75  10  793
1477482175.095:    -36  75  10  793
1477482175.096:     17  75  10  793
1477482175.096:     69  75  10  793
1477482175.097:     88  75  10  793
1477482175.097:     66  75  10  793
1477482175.098:     35  75  10  793
1477482175.102:     16  75  10  793
1477482175.102:      4  75  10  793
1477482175.104:    -13  75  10  793
1477482175.116:    -34  75  10  793
1477482175.116:    -42  75  10  793
1477482175.116:    -13  75  10  793
1477482175.117:     55  75  10  793
1477482175.117:    126  75  10  793
1477482175.117:    156  75  10  793
1477482175.118:    140  75  10  793
1477482175.118:     95  75  10  793
1477482175.121:     43  75  10  793
1477482175.123:      8  75  10  793
1477482175.135:      9  75  10  793
1477482175.135:     45  75  10  793
1477482175.135:    101  75  10  793
1477482175.135:    154  75  10  793
1477482175.135:    181  75  10  793
1477482175.135:    178  75  10  793
1477482175.137:    157  75  10  793
1477482175.159:    122  75  10  793
1477482175.162:     62  75  10  793
1477482175.163:    -24  75  10  793
1477482175.164:    -94  75  10  793
1477482175.164:    -96  75  10  793
1477482175.164:    -33  75  10  793
1477482175.165:     37  75  10  793
1477482175.165:     58  75  10  793
1477482175.165:     35  75  10  793
1477482175.165:     21  75  10  793
1477482175.166:     44  75  10  793
1477482175.166:     54  75  10  793
1477482175.167:      6  75  10  793
1477482175.167:    -78  75  10  793
1477482175.168:   -115  75  10  793
1477482175.169:    -66  75  10  793
1477482175.171:     39  75  10  793
1477482175.184:    119  75  10  793
1477482175.185:    123  75  10  793
1477482175.186:     63  75  10  793
1477482175.186:    -17  75  10  793
1477482175.187:    -78  75  10  793
1477482175.187:    -91  75  10  793
1477482175.188:    -58  75  10  793
1477482175.189:    -12  75  10  793
1477482175.190:     -6  75  10  793
1477482175.190:    -41  75  10  793
1477482175.191:    -68  75  10  793
1477482175.193:    -37  75  10  793
1477482175.197:     24  75  10  793
1477482175.198:     49  75  10  793
1477482175.199:     -2  75  10  793
1477482175.201:    -86  75  10  793
1477482175.204:   -135  75  10  793
1477482175.205:   -117  75  10  793
1477482175.211:    -60  75  10  793
1477482175.212:     -2  75  10  793
1477482175.221:     41  75  10  793
1477482175.223:     52  75  10  793
1477482175.223:      9  75  10  793
1477482175.224:    -76  75  10  793
1477482175.225:   -158  75  10  793
1477482175.225:   -201  75  10  793
1477482175.226:   -208  75  10  793
1477482175.226:   -205  75  10  793
1477482175.228:   -201  75  10  793
1477482175.229:   -173  75  10  793
1477482175.239:   -118  75  10  793
1477482175.239:    -74  75  10  793
1477482175.240:    -82  75  10  793
1477482175.241:   -121  75  10  793
1477482175.241:   -147  75  10  793
1477482175.242:   -155  75  10  793
1477482175.243:   -174  75  10  793
1477482175.245:   -204  75  10  793
1477482175.246:   -208  75  10  793
1477482175.248:   -164  75  10  793
1477482175.256:   -103  75  10  793
1477482175.257:    -82  75  10  793
1477482175.258:   -119  75  10  793
1477482175.258:   -163  75  10  793
1477482175.259:   -170  75  10  793
1477482175.260:   -179  75  10  793
1477482175.286:   -230  75  10  793
1477482175.358:   -301  75  10  793
1477482175.365:   -311  75  10  793
1477482175.365:   -228  75  10  793
1477482175.365:   -106  75  10  793
1477482175.365:    -28  75  10  793
1477482175.365:    -22  75  10  793
1477482175.365:    -47  75  10  793
1477482175.365:    -62  75  10  793
1477482175.367:    -90  75  10  793
1477482175.367:   -149  75  10  793
1477482175.367:   -212  75  10  793
1477482175.367:   -238  75  10  793
1477482175.367:   -223  75  10  793
1477482175.367:   -190  75  10  793
1477482175.368:   -153  75  10  793
1477482175.368:   -110  75  10  793
1477482175.368:    -81  75  10  793
1477482175.368:   -103  75  10  793
1477482175.368:   -187  75  10  793
1477482175.369:   -276  75  10  793
1477482175.369:   -300  75  10  793
1477482175.369:   -262  75  10  793
1477482175.369:   -243  75  10  793
1477482175.369:   -277  75  10  793
1477482175.370:   -307  75  10  793
1477482175.370:   -254  75  10  793
1477482175.370:   -142  75  10  793
1477482175.370:    -75  75  10  793
1477482175.370:   -122  75  10  793
1477482175.370:   -226  75  10  793
1477482175.371:   -272  75  10  793
1477482175.371:   -208  75  10  793
1477482175.371:   -105  75  10  793
1477482175.371:    -51  75  10  793
1477482175.372:    -69  75  10  793
1477482175.372:   -106  75  10  793
1477482175.372:   -120  75  10  793
1477482175.373:   -116  75  10  793
1477482175.373:   -134  75  10  793
1477482175.373:   -204  75  10  793
1477482175.373:   -297  75  10  793
1477482175.392:   -346  75  10  793
1477482175.392:   -304  75  10  793
1477482175.392:   -195  75  10  793
1477482175.392:   -108  75  10  793
1477482175.393:   -109  75  10  793
1477482175.393:   -186  75  10  793
1477482175.393:   -256  75  10  793
1477482175.393:   -270  75  10  793
1477482175.393:   -268  75  10  793
1477482175.393:   -310  75  10  793
1477482175.393:   -386  75  10  793
1477482175.393:   -428  75  10  793
1477482175.394:   -402  75  10  793
1477482175.394:   -337  75  10  793
1477482175.394:   -280  75  10  793
1477482175.394:   -247  75  10  793
1477482175.395:   -231  75  10  793
1477482175.395:   -242  75  10  793
1477482175.395:   -302  75  10  793
1477482175.395:   -394  75  10  793
1477482175.396:   -452  75  10  793
1477482175.396:   -424  75  10  793
1477482175.396:   -334  75  10  793
1477482175.396:   -240  75  10  793
1477482175.396:   -189  75  10  793
1477482175.396:   -196  75  10  793
1477482175.397:   -247  75  10  793
1477482175.397:   -307  75  10  793
1477482175.399:   -338  75  10  793
1477482175.401:   -310  75  10  793
1477482175.403:   -240  75  10  793
1477482175.407:   -191  75  10  793
1477482175.407:   -206  75  10  793
1477482175.409:   -241  75  10  793
1477482175.415:   -212  75  10  793
1477482175.416:   -104  75  10  793
1477482175.429:      2  75  10  793
1477482175.429:     14  75  10  793
1477482175.429:    -81  75  10  793
1477482175.429:   -196  75  10  793
1477482175.430:   -236  75  10  793
1477482175.430:   -173  75  10  793
1477482175.431:    -62  75  10  793
1477482175.432:     39  75  10  793
1477482175.433:    103  75  10  793
1477482175.433:    125  75  10  793
1477482175.434:    104  75  10  793
1477482175.436:     56  75  10  793
1477482175.439:      0  75  10  793
1477482175.443:    -58  75  10  793
1477482175.444:   -120  75  10  793
1477482175.446:   -180  75  10  793
1477482175.447:   -224  75  10  793
1477482175.449:   -226  75  10  793
1477482175.465:   -185  75  10  793
1477482175.466:   -142  75  10  793
1477482175.467:   -135  75  10  793
1477482175.467:   -157  75  10  793
1477482175.468:   -176  75  10  793
1477482175.468:   -181  75  10  793
1477482175.469:   -181  75  10  793
1477482175.471:   -192  75  10  793
1477482175.472:   -206  75  10  793
1477482175.472:   -208  75  10  793
1477482175.473:   -196  75  10  793
1477482175.474:   -205  75  10  793
1477482175.487:   -270  75  10  793
1477482175.487:   -377  75  10  793
1477482175.487:   -474  75  10  793
1477482175.488:   -538  75  10  793
1477482175.488:   -575  75  10  793
1477482175.488:   -603  75  10  793
1477482175.488:   -607  75  10  793
1477482175.491:   -566  75  10  793
1477482175.491:   -482  75  10  793
1477482175.495:   -404  75  10  793
1477482175.496:   -383  75  10  793
1477482175.500:   -427  75  10  793
1477482175.501:   -494  75  10  793
1477482175.506:   -548  75  10  793
1477482175.506:   -577  75  10  793
1477482175.509:   -577  75  10  793
1477482175.509:   -543  75  10  793
1477482175.510:   -476  75  10  793
1477482175.512:   -384  75  10  793
1477482175.512:   -289  75  10  793
1477482175.514:   -213  75  10  793
1477482175.515:   -174  75  10  793
1477482175.529:   -180  75  10  793
1477482175.530:   -238  75  10  793
1477482175.530:   -340  75  10  793
1477482175.531:   -448  75  10  793
1477482175.531:   -499  75  10  793
1477482175.532:   -484  75  10  793
1477482175.532:   -444  75  10  793
1477482175.532:   -431  75  10  793
1477482175.533:   -462  75  10  793
1477482175.536:   -506  75  10  793
1477482175.540:   -520  75  10  793
1477482175.541:   -504  75  10  793
1477482175.549:   -502  75  10  793
1477482175.550:   -530  75  10  793
1477482175.551:   -555  75  10  793
1477482175.551:   -540  75  10  793
1477482175.552:   -485  75  10  793
1477482175.554:   -426  75  10  793
1477482175.556:   -397  75  10  793
1477482175.558:   -407  75  10  793
1477482175.559:   -439  75  10  793
1477482175.560:   -477  75  10  793
1477482175.566:   -525  75  10  793
1477482175.567:   -569  75  10  793
1477482175.570:   -574  75  10  793
1477482175.570:   -529  75  10  793
1477482175.571:   -455  75  10  793
1477482175.572:   -384  75  10  793
1477482175.573:   -339  75  10  793
1477482175.575:   -320  75  10  793
1477482175.577:   -320  75  10  793
1477482175.578:   -343  75  10  793
1477482175.580:   -404  75  10  793
1477482175.583:   -482  75  10  793
1477482175.586:   -525  75  10  793
1477482175.586:   -493  75  10  793
1477482175.606:   -409  75  10  793
1477482175.607:   -328  75  10  793
1477482175.608:   -300  75  10  793
1477482175.608:   -329  75  10  793
1477482175.609:   -381  75  10  793
1477482175.610:   -423  75  10  793
1477482175.611:   -460  75  10  793
1477482175.613:   -515  75  10  793
1477482175.613:   -580  75  10  793
1477482175.615:   -609  75  10  793
1477482175.626:   -567  75  10  793
1477482175.627:   -465  75  10  793
1477482175.627:   -368  75  10  793
1477482175.627:   -317  75  10  793
1477482175.627:   -318  75  10  793
1477482175.627:   -363  75  10  793
1477482175.627:   -492  75  10  793
1477482175.627:   -757  75  10  793
1477482175.627:  -1149  75  10  793
1477482175.633:  -1583  75  10  793
1477482175.633:  -1986  75  10  793
1477482175.633:  -2370  75  10  793
1477482175.633:  -2803  75  10  793
1477482175.634:  -3309  75  10  793
1477482175.636:  -3817  75  10  793
1477482175.638:  -4208  75  10  793
1477482175.646:  -4411  75  10  793
1477482175.647:  -4398  75  10  793
1477482175.647:  -4146  75  10  793
1477482175.647:  -3658  75  10  793
1477482175.647:  -3024  75  10  793
1477482175.650:  -2398  75  10  793
1477482175.651:  -1886  75  10  793
1477482175.655:  -1475  75  10  793
1477482175.655:  -1097  75  10  793
1477482175.659:   -756  75  10  793
1477482175.666:   -547  75  10  793
1477482175.666:   -540  75  10  793
1477482175.667:   -668  75  10  793
1477482175.667:   -774  75  10  793
1477482175.669:   -759  75  10  793
1477482175.669:   -637  75  10  793
1477482175.673:   -457  75  10  793
1477482175.673:   -251  75  10  793
1477482175.675:    -41  75  10  793
1477482175.678:    126  75  10  793
1477482175.689:    215  75  10  793
1477482175.691:    247  75  10  793
1477482175.692:    291  75  10  793
1477482175.693:    378  75  10  793
1477482175.695:    456  75  10  793
1477482175.696:    472  75  10  793
1477482175.697:    455  75  10  793
1477482175.698:    465  75  10  793
1477482175.709:    499  75  10  793
1477482175.709:    490  75  10  793
1477482175.710:    413  75  10  793
1477482175.710:    337  75  10  793
1477482175.711:    356  75  10  793
1477482175.711:    461  75  10  793
1477482175.712:    532  75  10  793
1477482175.712:    472  75  10  793
1477482175.713:    347  75  10  793
1477482175.714:    295  75  10  793
1477482175.714:    357  75  10  793
1477482175.716:    434  75  10  793
1477482175.717:    419  75  10  793
1477482175.719:    311  75  10  793
1477482175.724:    222  75  10  793
1477482175.724:    231  75  10  793
1477482175.728:    302  75  10  793
1477482175.728:    341  75  10  793
1477482175.753:    314  75  10  793
1477482175.753:    273  75  10  793
1477482175.754:    276  75  10  793
1477482175.754:    311  75  10  793
1477482175.754:    322  75  10  793
1477482175.754:    268  75  10  793
1477482175.754:    181  75  10  793
1477482175.754:    126  75  10  793
1477482175.755:    150  75  10  793
1477482175.755:    223  75  10  793
1477482175.755:    279  75  10  793
1477482175.755:    270  75  10  793
1477482175.756:    207  75  10  793
1477482175.756:    139  75  10  793
1477482175.757:    114  75  10  793
1477482175.760:    127  75  10  793
1477482175.761:    126  75  10  793
1477482175.763:     75  75  10  793
1477482175.764:      5  75  10  793
1477482175.768:    -19  75  10  793
1477482175.769:     48  75  10  793
1477482175.770:    185  75  10  793
1477482175.772:    305  75  10  793
1477482175.778:    333  75  10  793
1477482175.779:    276  75  10  793
1477482175.779:    193  75  10  793
1477482175.782:    132  75  10  793
1477482175.783:    100  75  10  793
1477482175.803:     78  75  10  793
1477482175.805:     62  75  10  793
1477482175.806:     64  75  10  793
1477482175.806:     94  75  10  793
1477482175.807:    130  75  10  793
1477482175.807:    131  75  10  793
1477482175.808:     97  75  10  793
1477482175.811:     60  75  10  793
1477482175.812:     42  75  10  793
1477482175.813:     45  75  10  793
1477482175.826:     52  75  10  793
1477482175.826:     60  75  10  793
1477482175.828:     74  75  10  793
1477482175.828:    103  75  10  793
1477482175.829:    125  75  10  793
1477482175.829:    114  75  10  793
1477482175.829:     60  75  10  793
1477482175.830:    -13  75  10  793
1477482175.830:    -83  75  10  793
1477482175.830:   -135  75  10  793
1477482175.830:   -161  75  10  793
1477482175.830:   -159  75  10  793
1477482175.830:   -133  75  10  793
1477482175.833:    -90  75  10  793
1477482175.833:    -45  75  10  793
1477482175.834:    -14  75  10  793
1477482175.838:    -12  75  10  793
1477482175.840:    -37  75  10  793
1477482175.844:    -94  75  10  793
1477482175.844:   -173  75  10  793
1477482175.846:   -234  75  10  793
1477482175.846:   -233  75  10  793
1477482175.860:   -169  75  10  793
1477482175.861:    -79  75  10  793
1477482175.862:     -8  75  10  793
1477482175.863:     26  75  10  793
1477482175.865:     30  75  10  793
1477482175.866:     18  75  10  793
1477482175.866:    -12  75  10  793
1477482175.867:    -42  75  10  793
1477482175.881:    -35  75  10  793
1477482175.881:     22  75  10  793
1477482175.881:     78  75  10  793
1477482175.882:     67  75  10  793
1477482175.882:      3  75  10  793
1477482175.882:    -23  75  10  793
1477482175.882:     36  75  10  793
1477482175.882:    113  75  10  793
1477482175.883:     79  75  10  793
1477482175.885:    -93  75  10  793
1477482175.885:   -259  75  10  793
1477482175.888:   -251  75  10  793
1477482175.889:    -69  75  10  793
1477482175.889:    130  75  10  793
1477482175.890:    204  75  10  793
1477482175.891:    163  75  10  793
1477482175.894:    119  75  10  793
1477482175.897:    140  75  10  793
1477482175.915:    183  75  10  793
1477482175.915:    164  75  10  793
1477482175.915:     80  75  10  793
1477482175.915:      7  75  10  793
1477482175.916:      2  75  10  793
1477482175.916:     50  75  10  793
1477482175.916:     96  75  10  793
1477482175.917:    113  75  10  793
1477482175.918:    114  75  10  793
1477482175.918:    120  75  10  793
1477482175.918:    125  75  10  793
1477482175.918:     91  75  10  793
1477482175.922:     21  75  10  793
1477482175.924:    -38  75  10  793
1477482175.933:    -36  75  10  793
1477482175.933:     22  75  10  793
1477482175.941:     83  75  10  793
1477482175.941:    104  75  10  793
1477482175.941:     88  75  10  793
1477482175.941:     70  75  10  793
1477482175.942:     64  75  10  793
1477482175.944:     36  75  10  793
1477482175.944:    -29  75  10  793
1477482175.944:    -91  75  10  793
1477482175.947:    -86  75  10  793
1477482175.948:    -21  75  10  793
1477482175.952:     41  75  10  793
1477482175.953:     35  75  10  793
1477482175.956:    -24  75  10  793
1477482175.957:    -71  75  10  793
1477482175.959:    -61  75  10  793
1477482175.959:    -37  75  10  793
1477482175.960:    -60  75  10  793
1477482175.963:   -119  75  10  793
1477482175.965:   -133  75  10  793
1477482175.969:    -51  75  10  793
1477482175.970:     92  75  10  793
1477482175.971:    200  75  10  793
1477482175.972:    220  75  10  793
1477482175.974:    180  75  10  793
1477482175.976:    142  75  10  793
1477482175.979:    116  75  10  793
1477482175.992:     70  75  10  793
1477482175.992:     -4  75  10  793
1477482175.993:    -59  75  10  793
1477482175.993:    -48  75  10  793
1477482175.993:     21  75  10  793
1477482175.995:     88  75  10  793
1477482175.995:    111  75  10  793
1477482175.997:     91  75  10  793
1477482175.997:     71  75  10  793
1477482175.998:     67  75  10  793
1477482176.001:     45  75  10  793
1477482176.001:    -14  75  10  793
1477482176.008:    -86  75  10  793
1477482176.009:   -118  75  10  793
1477482176.018:    -81  75  10  793
1477482176.019:      5  75  10  793
1477482176.019:     81  75  10  793
1477482176.019:     93  75  10  793
1477482176.019:     43  75  10  793
1477482176.019:     -9  75  10  793
1477482176.020:    -15  75  10  793
1477482176.024:     28  75  10  793
1477482176.024:     65  75  10  793
1477482176.026:     54  75  10  793
1477482176.028:     14  75  10  793
1477482176.029:     18  75  10  793
1477482176.040:     95  75  10  793
1477482176.040:    181  75  10  793
1477482176.040:    181  75  10  793
1477482176.041:     80  75  10  793
1477482176.041:    -40  75  10  793
1477482176.043:    -86  75  10  793
1477482176.043:    -51  75  10  793
1477482176.046:     -8  75  10  793
1477482176.046:    -15  75  10  793
1477482176.049:    -35  75  10  793
1477482176.052:      7  75  10  793
1477482176.053:    107  75  10  793
1477482176.057:    178  75  10  793
1477482176.057:    154  75  10  793
1477482176.062:     56  75  10  793
1477482176.152:    -21  75  10  793
1477482176.162:     -7  75  10  793
1477482176.162:     76  75  10  793
1477482176.162:    149  75  10  793
1477482176.163:    175  75  10  793
1477482176.163:    176  75  10  793
1477482176.163:    190  75  10  793
1477482176.163:    213  75  10  793
1477482176.163:    219  75  10  793
1477482176.164:    188  75  10  793
1477482176.164:    129  75  10  793
1477482176.164:     76  75  10  793
1477482176.164:     56  75  10  793
1477482176.164:     83  75  10  793
1477482176.164:    156  75  10  793
1477482176.164:    245  75  10  793
1477482176.165:    289  75  10  793
1477482176.165:    244  75  10  793
1477482176.165:    147  75  10  793
1477482176.165:     65  75  10  793
1477482176.165:     26  75  10  793
1477482176.166:      2  75  10  793
1477482176.166:    -29  75  10  793
1477482176.166:    -39  75  10  793
1477482176.166:     10  75  10  793
1477482176.166:     93  75  10  793
1477482176.167:    130  75  10  793
1477482176.167:     84  75  10  793
1477482176.167:     27  75  10  793
1477482176.167:     40  75  10  793
1477482176.167:     79  75  10  793
1477482176.167:     43  75  10  793
1477482176.168:    -72  75  10  793
1477482176.168:   -133  75  10  793
1477482176.168:    -35  75  10  793
1477482176.168:    150  75  10  793
1477482176.168:    238  75  10  793
1477482176.168:    159  75  10  793
1477482176.168:     34  75  10  793
1477482176.169:     12  75  10  793
1477482176.169:     61  75  10  793
1477482176.169:     46  75  10  793
1477482176.169:    -68  75  10  793
1477482176.170:   -152  75  10  793
1477482176.170:   -100  75  10  793
1477482176.170:     31  75  10  793
1477482176.172:     80  75  10  793
1477482176.173:      4  75  10  793
1477482176.173:    -85  75  10  793
1477482176.173:    -63  75  10  793
1477482176.173:     21  75  10  793
1477482176.173:     39  75  10  793
1477482176.175:    -40  75  10  793
1477482176.175:   -102  75  10  793
1477482176.175:    -46  75  10  793
1477482176.175:    100  75  10  793
1477482176.176:    216  75  10  793
1477482176.176:    219  75  10  793
1477482176.176:    132  75  10  793
1477482176.177:     28  75  10  793
1477482176.179:    -48  75  10  793
1477482176.180:    -82  75  10  793
1477482176.184:    -68  75  10  793
1477482176.192:    -19  75  10  793
1477482176.192:     22  75  10  793
1477482176.192:     27  75  10  793
1477482176.192:     22  75  10  793
1477482176.194:     65  75  10  793
1477482176.196:    155  75  10  793
1477482176.198:    224  75  10  793
1477482176.198:    189  75  10  793
1477482176.203:     63  75  10  793
1477482176.203:    -52  75  10  793
1477482176.213:    -68  75  10  793
1477482176.213:      2  75  10  793
1477482176.213:     84  75  10  793
1477482176.214:    125  75  10  793
1477482176.214:    136  75  10  793
1477482176.214:    146  75  10  793
1477482176.215:    164  75  10  793
1477482176.220:    168  75  10  793
1477482176.221:    140  75  10  793
1477482176.221:    102  75  10  793
1477482176.225:    107  75  10  793
1477482176.226:    172  75  10  793
1477482176.238:    275  75  10  793
1477482176.238:    357  75  10  793
1477482176.238:    374  75  10  793
1477482176.238:    328  75  10  793
1477482176.238:    273  75  10  793
1477482176.239:    244  75  10  793
1477482176.240:    208  75  10  793
1477482176.241:    122  75  10  793
1477482176.242:     -3  75  10  793
1477482176.245:    -89  75  10  793
1477482176.247:    -81  75  10  793
1477482176.248:     -5  75  10  793
1477482176.259:     48  75  10  793
1477482176.259:     31  75  10  793
1477482176.260:    -19  75  10  793
1477482176.260:    -26  75  10  793
1477482176.262:      5  75  10  793
1477482176.262:      6  75  10  793
1477482176.264:    -60  75  10  793
1477482176.266:   -143  75  10  793
1477482176.266:   -170  75  10  793
1477482176.272:   -124  75  10  793
1477482176.280:    -73  75  10  793
1477482176.280:    -95  75  10  793
1477482176.281:   -197  75  10  793
1477482176.281:   -308  75  10  793
1477482176.281:   -374  75  10  793
1477482176.281:   -391  75  10  793
1477482176.283:   -386  75  10  793
1477482176.285:   -372  75  10  793
1477482176.290:   -356  75  10  793
1477482176.290:   -339  75  10  793
1477482176.291:   -329  75  10  793
1477482176.292:   -323  75  10  793
1477482176.294:   -320  75  10  793
1477482176.300:   -322  75  10  793
1477482176.307:   -347  75  10  793
1477482176.307:   -404  75  10  793
1477482176.307:   -452  75  10  793
1477482176.307:   -432  75  10  793
1477482176.308:   -335  75  10  793
1477482176.309:   -216  75  10  793
1477482176.315:   -138  75  10  793
1477482176.315:   -125  75  10  793
1477482176.317:   -165  75  10  793
1477482176.317:   -235  75  10  793
1477482176.320:   -335  75  10  793
1477482176.321:   -467  75  10  793
1477482176.323:   -597  75  10  793
1477482176.324:   -665  75  10  793
1477482176.326:   -661  75  10  793
1477482176.331:   -646  75  10  793
1477482176.331:   -679  75  10  793
1477482176.333:   -757  75  10  793
1477482176.334:   -814  75  10  793
1477482176.335:   -803  75  10  793
1477482176.350:   -757  75  10  793
1477482176.351:   -773  75  10  793
1477482176.351:   -883  75  10  793
1477482176.351:  -1009  75  10  793
1477482176.380:  -1041  75  10  793
1477482176.380:   -959  75  10  793
1477482176.383:   -846  75  10  793
1477482176.383:   -804  75  10  793
1477482176.383:   -853  75  10  793
1477482176.383:   -927  75  10  793
1477482176.383:   -977  75  10  793
1477482176.384:  -1027  75  10  793
1477482176.385:  -1101  75  10  793
1477482176.388:  -1165  75  10  793
1477482176.389:  -1160  75  10  793
1477482176.389:  -1092  75  10  793
1477482176.389:  -1030  75  10  793
1477482176.389:  -1028  75  10  793
1477482176.389:  -1061  75  10  793
1477482176.390:  -1068  75  10  793
1477482176.390:  -1041  75  10  793
1477482176.390:  -1058  75  10  793
1477482176.390:  -1152  75  10  793
1477482176.390:  -1255  75  10  793
1477482176.390:  -1270  75  10  793
1477482176.391:  -1200  75  10  793
1477482176.394:  -1135  75  10  793
1477482176.394:  -1153  75  10  793
1477482176.395:  -1238  75  10  793
1477482176.396:  -1325  75  10  793
1477482176.399:  -1388  75  10  793
1477482176.400:  -1465  75  10  793
1477482176.402:  -1578  75  10  793
1477482176.403:  -1689  75  10  793
1477482176.413:  -1739  75  10  793
1477482176.413:  -1732  75  10  793
1477482176.413:  -1713  75  10  793
1477482176.413:  -1735  75  10  793
1477482176.413:  -1839  75  10  793
1477482176.417:  -2065  75  10  793
1477482176.417:  -2427  75  10  793
1477482176.418:  -2892  75  10  793
1477482176.425:  -3394  75  10  793
1477482176.425:  -3883  75  10  793
1477482176.427:  -4371  75  10  793
1477482176.427:  -4883  75  10  793
1477482176.429:  -5390  75  10  793
1477482176.430:  -5801  75  10  793
1477482176.431:  -6042  75  10  793
1477482176.436:  -6101  75  10  793
1477482176.455:  -5975  75  10  793
1477482176.456:  -5648  75  10  793
1477482176.456:  -5125  75  10  793
1477482176.456:  -4486  75  10  793
1477482176.456:  -3850  75  10  793
1477482176.456:  -3282  75  10  793
1477482176.457:  -2754  75  10  793
1477482176.457:  -2220  75  10  793
1477482176.458:  -1720  75  10  793
1477482176.458:  -1384  75  10  793
1477482176.458:  -1288  75  10  793
1477482176.459:  -1364  75  10  793
1477482176.459:  -1460  75  10  793
1477482176.461:  -1466  75  10  793
1477482176.464:  -1364  75  10  793
1477482176.465:  -1185  75  10  793
1477482176.468:   -957  75  10  793
1477482176.469:   -693  75  10  793
1477482176.474:   -432  75  10  793
1477482176.474:   -226  75  10  793
1477482176.484:    -89  75  10  793
1477482176.485:     21  75  10  793
1477482176.485:    138  75  10  793
1477482176.485:    240  75  10  793
1477482176.485:    281  75  10  793
1477482176.488:    260  75  10  793
1477482176.488:    233  75  10  793
1477482176.489:    269  75  10  793
1477482176.491:    369  75  10  793
1477482176.493:    480  75  10  793
1477482176.495:    555  75  10  793
1477482176.496:    610  75  10  793
1477482176.506:    667  75  10  793
1477482176.506:    721  75  10  793
1477482176.506:    746  75  10  793
1477482176.507:    741  75  10  793
1477482176.507:    746  75  10  793
1477482176.509:    810  75  10  793
1477482176.510:    939  75  10  793
1477482176.515:   1082  75  10  793
1477482176.515:   1169  75  10  793
1477482176.516:   1183  75  10  793
1477482176.518:   1154  75  10  793
1477482176.523:   1138  75  10  793
1477482176.523:   1168  75  10  793
1477482176.523:   1227  75  10  793
1477482176.528:   1270  75  10  793
1477482176.528:   1290  75  10  793
1477482176.530:   1335  75  10  793
1477482176.531:   1431  75  10  793
1477482176.544:   1522  75  10  793
1477482176.544:   1511  75  10  793
1477482176.544:   1372  75  10  793
1477482176.565:   1208  75  10  793
1477482176.569:   1160  75  10  793
1477482176.569:   1255  75  10  793
1477482176.569:   1375  75  10  793
1477482176.570:   1410  75  10  793
1477482176.572:   1385  75  10  793
1477482176.572:   1403  75  10  793
1477482176.572:   1497  75  10  793
1477482176.572:   1583  75  10  793
1477482176.574:   1569  75  10  793
1477482176.575:   1462  75  10  793
1477482176.575:   1360  75  10  796
1477482176.575:   1331  75  10  796
1477482176.577:   1347  75  10  796
1477482176.577:   1355  75  10  796
1477482176.577:   1365  75  10  796
1477482176.577:   1415  75  10  796
1477482176.577:   1496  75  10  796
1477482176.579:   1540  75  10  796
1477482176.580:   1513  75  10  796
1477482176.581:   1449  75  10  796
1477482176.583:   1417  75  10  796
1477482176.583:   1449  75  10  796
1477482176.587:   1507  75  10  796
1477482176.587:   1541  75  10  796
1477482176.589:   1550  75  10  796
1477482176.590:   1557  75  10  796
1477482176.596:   1569  75  10  796
1477482176.596:   1565  75  10  796
1477482176.597:   1532  75  10  796
1477482176.599:   1472  75  10  796
1477482176.611:   1421  75  10  796
1477482176.612:   1418  75  10  796
1477482176.612:   1469  75  10  796
1477482176.612:   1527  75  10  796
1477482176.612:   1543  75  10  796
1477482176.613:   1514  75  10  796
1477482176.613:   1490  75  10  796
1477482176.615:   1514  75  10  796
1477482176.616:   1565  75  10  796
1477482176.618:   1571  75  10  796
1477482176.620:   1499  75  10  796
1477482176.623:   1414  75  10  796
1477482176.623:   1415  75  10  796
1477482176.628:   1517  75  10  796
1477482176.642:   1639  75  10  796
1477482176.643:   1697  75  10  796
1477482176.643:   1685  75  10  796
1477482176.643:   1660  75  10  796
1477482176.643:   1656  75  10  796
1477482176.643:   1645  75  10  796
1477482176.643:   1592  75  10  796
1477482176.643:   1513  75  10  796
1477482176.647:   1466  75  10  796
1477482176.647:   1490  75  10  796
1477482176.649:   1558  75  10  796
1477482176.650:   1624  75  10  796
1477482176.652:   1661  75  10  796
1477482176.655:   1656  75  10  796
1477482176.656:   1609  75  10  796
1477482176.661:   1534  75  10  796
1477482176.661:   1465  75  10  796
1477482176.661:   1439  75  10  796
1477482176.664:   1465  75  10  796
1477482176.665:   1507  75  10  796
1477482176.671:   1527  75  10  796
1477482176.671:   1533  75  10  796
1477482176.689:   1560  75  10  796
1477482176.689:   1603  75  10  796
1477482176.689:   1611  75  10  796
1477482176.689:   1549  75  10  796
1477482176.689:   1433  75  10  796
1477482176.690:   1332  75  10  796
1477482176.690:   1287  75  10  796
1477482176.690:   1274  75  10  796
1477482176.690:   1239  75  10  796
1477482176.692:   1188  75  10  796
1477482176.692:   1160  75  10  796
1477482176.694:   1165  75  10  796
1477482176.695:   1158  75  10  796
1477482176.696:   1088  75  10  796
1477482176.699:    952  75  10  796
1477482176.701:    816  75  10  796
1477482176.713:    752  75  10  796
1477482176.714:    778  75  10  796
1477482176.714:    842  75  10  796
1477482176.714:    890  75  10  796
1477482176.714:    894  75  10  796
1477482176.714:    866  75  10  796
1477482176.717:    847  75  10  796
1477482176.719:    873  75  10  796
1477482176.720:    917  75  10  796
1477482176.723:    924  75  10  796
1477482176.723:    881  75  10  796
1477482176.724:    854  75  10  796
1477482176.726:    929  75  10  796
1477482176.729:   1106  75  10  796
1477482176.739:   1268  75  10  796
1477482176.740:   1289  75  10  796
1477482176.740:   1176  75  10  796
1477482176.740:   1072  75  10  796
1477482176.740:   1079  75  10  796
1477482176.740:   1152  75  10  796
1477482176.742:   1175  75  10  796
1477482176.747:   1122  75  10  796
1477482176.747:   1087  75  10  796
1477482176.749:   1165  75  10  796
1477482176.750:   1326  75  10  796
1477482176.751:   1450  75  10  796
1477482176.754:   1468  75  10  796
1477482176.758:   1436  75  10  796
1477482176.759:   1432  75  10  796
1477482176.760:   1456  75  10  796
1477482176.761:   1458  75  10  796
1477482176.765:   1435  75  10  796
1477482176.766:   1445  75  10  796
1477482176.768:   1526  75  10  796
1477482176.772:   1647  75  10  796
1477482176.781:   1741  75  10  796
1477482176.793:   1773  75  10  796
1477482176.793:   1771  75  10  796
1477482176.793:   1771  75  10  796
1477482176.793:   1777  75  10  796
1477482176.793:   1786  75  10  796
1477482176.793:   1804  75  10  796
1477482176.794:   1832  75  10  796
1477482176.794:   1847  75  10  796
1477482176.794:   1842  75  10  796
1477482176.794:   1828  75  10  796
1477482176.795:   1824  75  10  796
1477482176.795:   1813  75  10  796
1477482176.798:   1763  75  10  796
1477482176.804:   1664  75  10  796
1477482176.805:   1568  75  10  796
1477482176.805:   1527  75  10  796
1477482176.819:   1546  75  10  796
1477482176.820:   1564  75  10  796
1477482176.821:   1540  75  10  796
1477482176.822:   1488  75  10  796
1477482176.824:   1433  75  10  796
1477482176.824:   1364  75  10  796
1477482176.824:   1241  75  10  796
1477482176.825:   1039  75  10  796
1477482176.826:    800  75  10  796
1477482176.826:    602  75  10  796
1477482176.826:    495  75  10  796
1477482176.830:    455  75  10  796
1477482176.840:    423  75  10  796
1477482176.840:    367  75  10  796
1477482176.840:    301  75  10  796
1477482176.840:    273  75  10  796
1477482176.841:    305  75  10  796
1477482176.841:    347  75  10  796
1477482176.843:    321  75  10  796
1477482176.844:    216  75  10  796
1477482176.845:    118  75  10  796
1477482176.846:    115  75  10  796
1477482176.848:    200  75  10  796
1477482176.850:    272  75  10  796
1477482176.853:    250  75  10  796
1477482176.855:    168  75  10  796
1477482176.856:    133  75  10  796
1477482176.858:    175  75  10  796
1477482176.861:    207  75  10  796
1477482176.861:    149  75  10  796
1477482176.864:     46  75  10  796
1477482176.865:     14  75  10  796
1477482176.868:     91  75  10  796
1477482176.870:    186  75  10  796
1477482176.872:    189  75  10  796
1477482176.876:     97  75  10  796
1477482176.950:     18  75  10  796
1477482176.950:     20  75  10  796
1477482176.951:     43  75  10  796
1477482176.951:      9  75  10  796
1477482176.951:    -59  75  10  796
1477482176.951:    -69  75  10  796
1477482176.951:     17  75  10  796
1477482176.951:    132  75  10  796
1477482176.951:    177  75  10  796
1477482176.952:    133  75  10  796
1477482176.952:     60  75  10  796
1477482176.952:     18  75  10  796
1477482176.952:     -9  75  10  796
1477482176.952:    -57  75  10  796
1477482176.952:   -118  75  10  796
1477482176.952:   -145  75  10  796
1477482176.952:   -103  75  10  796
1477482176.953:     -5  75  10  796
1477482176.953:    104  75  10  796
1477482176.953:    178  75  10  796
1477482176.953:    205  75  10  796
1477482176.953:    208  75  10  796
1477482176.953:    213  75  10  796
1477482176.953:    235  75  10  796
1477482176.954:    260  75  10  796
1477482176.954:    274  75  10  796
1477482176.954:    275  75  10  796
1477482176.954:    300  75  10  796
1477482176.954:    368  75  10  796
1477482176.954:    448  75  10  796
1477482176.954:    474  75  10  796
1477482176.954:    424  75  10  796
1477482176.955:    332  75  10  796
1477482176.955:    275  75  10  796
1477482176.955:    294  75  10  796
1477482176.955:    363  75  10  796
1477482176.955:    437  75  10  796
1477482176.955:    495  75  10  796
1477482176.955:    550  75  10  796
1477482176.956:    605  75  10  796
1477482176.956:    625  75  10  796
1477482176.956:    587  75  10  796
1477482176.958:    518  75  10  796
1477482176.964:    470  75  10  796
1477482176.965:    469  75  10  796
1477482176.965:    495  75  10  796
1477482176.966:    512  75  10  796
1477482176.972:    518  75  10  796
1477482176.973:    552  75  10  796
1477482176.973:    622  75  10  796
1477482176.974:    677  75  10  796
1477482176.977:    661  75  10  796
1477482176.990:    575  75  10  796
1477482176.992:    486  75  10  796
1477482176.992:    467  75  10  796
1477482177.004:    526  75  10  796
1477482177.009:    596  75  10  796
1477482177.010:    618  75  10  796
1477482177.010:    609  75  10  796
1477482177.010:    622  75  10  796
1477482177.010:    681  75  10  796
1477482177.011:    750  75  10  796
1477482177.011:    778  75  10  796
1477482177.011:    747  75  10  796
1477482177.011:    702  75  10  796
1477482177.012:    706  75  10  796
1477482177.012:    779  75  10  796
1477482177.012:    890  75  10  796
1477482177.013:   1005  75  10  796
1477482177.013:   1103  75  10  796
1477482177.014:   1153  75  10  796
1477482177.015:   1131  75  10  796
1477482177.017:   1054  75  10  796
1477482177.019:    976  75  10  796
1477482177.021:    958  75  10  796
1477482177.023:   1002  75  10  796
1477482177.025:   1040  75  10  796
1477482177.027:   1027  75  10  796
1477482177.031:   1005  75  10  796
1477482177.031:   1037  75  10  796
1477482177.033:   1110  75  10  796
1477482177.034:   1139  75  10  796
1477482177.050:   1088  75  10  796
1477482177.051:   1019  75  10  796
1477482177.051:   1028  75  10  796
1477482177.052:   1108  75  10  796
1477482177.053:   1172  75  10  796
1477482177.053:   1166  75  10  796
1477482177.054:   1144  75  10  796
1477482177.055:   1183  75  10  796
1477482177.055:   1252  75  10  796
1477482177.056:   1240  75  10  796
1477482177.058:   1102  75  10  796
1477482177.058:    900  75  10  796
1477482177.071:    719  75  10  796
1477482177.071:    579  75  10  796
1477482177.071:    456  75  10  796
1477482177.071:    345  75  10  796
1477482177.071:    286  75  10  796
1477482177.072:    292  75  10  796
1477482177.072:    309  75  10  796
1477482177.074:    273  75  10  796
1477482177.077:    190  75  10  796
1477482177.084:    102  75  10  796
1477482177.093:     20  75  10  796
1477482177.093:    -64  75  10  796
1477482177.094:   -123  75  10  796
1477482177.094:   -117  75  10  796
1477482177.096:    -47  75  10  796
1477482177.096:     20  75  10  796
1477482177.096:     18  75  10  796
1477482177.097:    -31  75  10  796
1477482177.097:    -48  75  10  796
1477482177.097:     15  75  10  796
1477482177.099:     91  75  10  796
1477482177.101:    108  75  10  796
1477482177.104:     68  75  10  796
1477482177.108:     33  75  10  796
1477482177.108:     54  75  10  796
1477482177.110:    133  75  10  796
1477482177.111:    229  75  10  796
1477482177.112:    285  75  10  796
1477482177.115:    260  75  10  796
1477482177.118:    154  75  10  796
1477482177.123:     15  75  10  796
1477482177.123:    -69  75  10  796
1477482177.141:    -57  75  10  796
1477482177.141:     -1  75  10  796
1477482177.144:      9  75  10  796
1477482177.146:    -37  75  10  796
1477482177.147:    -67  75  10  796
1477482177.147:    -25  75  10  796
1477482177.148:     41  75  10  796
1477482177.148:     32  75  10  796
1477482177.149:    -84  75  10  796
1477482177.150:   -224  75  10  796
1477482177.150:   -281  75  10  796
1477482177.150:   -239  75  10  796
1477482177.151:   -178  75  10  796
1477482177.151:   -157  75  10  796
1477482177.151:   -166  75  10  796
1477482177.154:   -173  75  10  796
1477482177.164:   -184  75  10  796
1477482177.164:   -233  75  10  796
1477482177.164:   -322  75  10  796
1477482177.166:   -404  75  10  796
1477482177.167:   -428  75  10  796
1477482177.167:   -401  75  10  796
1477482177.168:   -380  75  10  796
1477482177.168:   -389  75  10  796
1477482177.173:   -401  75  10  796
1477482177.173:   -378  75  10  796
1477482177.182:   -349  75  10  796
1477482177.182:   -376  75  10  796
1477482177.183:   -485  75  10  796
1477482177.183:   -626  75  10  796
1477482177.183:   -724  75  10  796
1477482177.184:   -744  75  10  796
1477482177.187:   -735  75  10  796
1477482177.191:   -762  75  10  796
1477482177.191:   -820  75  10  796
1477482177.193:   -852  75  10  796
1477482177.196:   -825  75  10  796
1477482177.196:   -770  75  10  796
1477482177.198:   -754  75  10  796
1477482177.200:   -795  75  10  796
1477482177.202:   -842  75  10  796
1477482177.204:   -828  75  10  796
1477482177.205:   -776  75  10  796
1477482177.209:   -790  75  10  796
1477482177.210:   -953  75  10  796
1477482177.211:  -1262  75  10  796
1477482177.213:  -1660  75  10  796
1477482177.215:  -2124  75  10  796
1477482177.225:  -2680  75  10  796
1477482177.225:  -3345  75  10  796
1477482177.226:  -4035  75  10  796
1477482177.226:  -4602  75  10  796
1477482177.226:  -4963  75  10  796
1477482177.229:  -5159  75  10  796
1477482177.230:  -5250  75  10  796
1477482177.236:  -5200  75  10  796
1477482177.244:  -4894  75  10  796
1477482177.245:  -4299  75  10  796
1477482177.245:  -3558  75  10  796
1477482177.245:  -2914  75  10  796
1477482177.245:  -2489  75  10  796
1477482177.245:  -2188  75  10  796
1477482177.245:  -1832  75  10  796
1477482177.246:  -1391  75  10  796
1477482177.251:  -1010  75  10  796
1477482177.252:   -859  75  10  796
1477482177.253:   -947  75  10  796
1477482177.254:  -1112  75  10  796
1477482177.257:  -1175  75  10  796
1477482177.259:  -1100  75  10  796
1477482177.261:   -973  75  10  796
1477482177.265:   -870  75  10  796
1477482177.289:   -766  75  10  796
1477482177.290:   -613  75  10  796
1477482177.290:   -418  75  10  796
1477482177.291:   -248  75  10  796
1477482177.293:   -160  75  10  796
1477482177.294:   -134  75  10  796
1477482177.295:   -114  75  10  796
1477482177.296:    -98  75  10  796
1477482177.297:   -130  75  10  796
1477482177.297:   -221  75  10  796
1477482177.309:   -295  75  10  796
1477482177.309:   -274  75  10  796
1477482177.309:   -170  75  10  796
1477482177.309:    -74  75  10  796
1477482177.310:    -52  75  10  796
1477482177.310:    -86  75  10  796
1477482177.310:   -115  75  10  796
1477482177.310:   -132  75  10  796
1477482177.310:   -186  75  10  796
1477482177.310:   -282  75  10  796
1477482177.311:   -337  75  10  796
1477482177.314:   -274  75  10  796
1477482177.314:   -115  75  10  796
1477482177.314:     26  75  10  796
1477482177.314:     57  75  10  796
1477482177.314:    -13  75  10  796
1477482177.315:   -101  75  10  796
1477482177.320:   -160  75  10  796
1477482177.321:   -210  75  10  796
1477482177.322:   -280  75  10  796
1477482177.324:   -342  75  10  796
1477482177.325:   -344  75  10  796
1477482177.328:   -283  75  10  796
1477482177.329:   -196  75  10  796
1477482177.331:   -140  75  10  796
1477482177.332:   -127  75  10  796
1477482177.337:   -130  75  10  796
1477482177.337:   -134  75  10  796
1477482177.348:   -161  75  10  796
1477482177.348:   -236  75  10  796
1477482177.349:   -333  75  10  796
1477482177.349:   -388  75  10  796
1477482177.349:   -368  75  10  796
1477482177.349:   -299  75  10  796
1477482177.383:   -251  75  10  794
1477482177.383:   -268  75  10  794
1477482177.393:   -329  75  10  794
1477482177.393:   -379  75  10  794
1477482177.394:   -395  75  10  794
1477482177.394:   -389  75  10  794
1477482177.396:   -380  75  10  794
1477482177.396:   -363  75  10  794
1477482177.397:   -336  75  10  794
1477482177.397:   -303  75  10  794
1477482177.398:   -268  75  10  794
1477482177.398:   -228  75  10  794
1477482177.399:   -184  75  10  794
1477482177.399:   -152  75  10  794
1477482177.400:   -167  75  10  794
1477482177.400:   -241  75  10  794
1477482177.401:   -327  75  10  794
1477482177.401:   -359  75  10  794
1477482177.402:   -307  75  10  794
1477482177.402:   -202  75  10  794
1477482177.403:    -99  75  10  794
1477482177.403:    -45  75  10  794
1477482177.425:    -55  75  10  794
1477482177.426:   -107  75  10  794
1477482177.426:   -153  75  10  794
1477482177.426:   -152  75  10  794
1477482177.427:    -95  75  10  794
1477482177.427:    -16  75  10  794
1477482177.428:     37  75  10  794
1477482177.429:     66  75  10  794
1477482177.431:    129  75  10  794
1477482177.432:    267  75  10  794
1477482177.434:    443  75  10  794
1477482177.434:    573  75  10  794
1477482177.435:    616  75  10  794
1477482177.435:    612  75  10  794
1477482177.436:    638  75  10  794
1477482177.437:    736  75  10  794
1477482177.437:    890  75  10  794
1477482177.439:   1055  75  10  794
1477482177.439:   1206  75  10  794
1477482177.439:   1324  75  10  794
1477482177.440:   1389  75  10  794
1477482177.440:   1409  75  10  794
1477482177.440:   1432  75  10  794
1477482177.442:   1501  75  10  794
1477482177.452:   1617  75  10  794
1477482177.452:   1742  75  10  794
1477482177.453:   1847  75  10  794
1477482177.453:   1960  75  10  794
1477482177.454:   2129  75  10  794
1477482177.454:   2356  75  10  794
1477482177.456:   2573  75  10  794
1477482177.456:   2711  75  10  794
1477482177.458:   2759  75  10  794
1477482177.459:   2755  75  10  794
1477482177.460:   2758  75  10  794
1477482177.463:   2812  75  10  794
1477482177.485:   2930  75  10  794
1477482177.485:   3076  75  10  794
1477482177.485:   3197  75  10  794
1477482177.486:   3252  75  10  794
1477482177.486:   3253  75  10  794
1477482177.486:   3258  75  10  794
1477482177.486:   3312  75  10  794
1477482177.486:   3373  75  10  794
1477482177.487:   3365  75  10  794
1477482177.487:   3269  75  10  794
1477482177.487:   3168  75  10  794
1477482177.489:   3153  75  10  794
1477482177.489:   3227  75  10  794
1477482177.490:   3288  75  10  794
1477482177.493:   3237  75  10  794
1477482177.497:   3081  75  10  794
1477482177.499:   2926  75  10  794
1477482177.499:   2845  75  10  794
1477482177.500:   2802  75  10  794
1477482177.501:   2710  75  10  794
1477482177.504:   2542  75  10  794
1477482177.506:   2364  75  10  794
1477482177.511:   2270  75  10  794
1477482177.511:   2275  75  10  794
1477482177.523:   2291  75  10  794
1477482177.523:   2215  75  10  794
1477482177.523:   2036  75  10  794
1477482177.523:   1833  75  10  794
1477482177.523:   1681  75  10  794
1477482177.525:   1595  75  10  794
1477482177.525:   1537  75  10  794
1477482177.527:   1473  75  10  794
1477482177.528:   1403  75  10  794
1477482177.531:   1347  75  10  794
1477482177.532:   1291  75  10  794
1477482177.534:   1206  75  10  794
1477482177.544:   1090  75  10  794
1477482177.545:    969  75  10  794
1477482177.545:    863  75  10  794
1477482177.545:    772  75  10  794
1477482177.545:    701  75  10  794
1477482177.545:    664  75  10  794
1477482177.548:    673  75  10  794
1477482177.552:    721  75  10  794
1477482177.552:    770  75  10  794
1477482177.554:    778  75  10  794
1477482177.556:    734  75  10  794
1477482177.557:    662  75  10  794
1477482177.567:    568  75  10  794
1477482177.567:    462  75  10  794
1477482177.575:    366  75  10  794
1477482177.575:    319  75  10  794
1477482177.575:    330  75  10  794
1477482177.575:    372  75  10  794
1477482177.576:    396  75  10  794
1477482177.576:    374  75  10  794
1477482177.576:    324  75  10  794
1477482177.579:    289  75  10  794
1477482177.580:    270  75  10  794
1477482177.582:    236  75  10  794
1477482177.583:    176  75  10  794
1477482177.585:    134  75  10  794
1477482177.588:    159  75  10  794
1477482177.589:    249  75  10  794
1477482177.594:    339  75  10  794
1477482177.594:    377  75  10  794
1477482177.595:    372  75  10  794
1477482177.597:    379  75  10  794
1477482177.606:    401  75  10  794
1477482177.606:    398  75  10  794
1477482177.606:    354  75  10  794
1477482177.607:    335  75  10  794
1477482177.607:    407  75  10  794
1477482177.610:    552  75  10  794
1477482177.612:    672  75  10  794
1477482177.613:    690  75  10  794
1477482177.616:    630  75  10  794
1477482177.617:    586  75  10  794
1477482177.622:    607  75  10  794
1477482177.622:    653  75  10  794
1477482177.639:    672  75  10  794
1477482177.639:    675  75  10  794
1477482177.639:    703  75  10  794
1477482177.639:    768  75  10  794
1477482177.639:    840  75  10  794
1477482177.640:    893  75  10  794
1477482177.640:    930  75  10  794
1477482177.640:    962  75  10  794
1477482177.642:    961  75  10  794
1477482177.642:    883  75  10  794
1477482177.642:    748  75  10  794
1477482177.644:    656  75  10  794
1477482177.646:    713  75  10  794
1477482177.648:    914  75  10  794
1477482177.649:   1136  75  10  794
1477482177.654:   1247  75  10  794
1477482177.717:   1222  75  10  794
1477482177.717:   1152  75  10  794
1477482177.718:   1144  75  10  794
1477482177.718:   1198  75  10  794
1477482177.719:   1228  75  10  794
1477482177.719:   1177  75  10  794
1477482177.719:   1079  75  10  794
1477482177.720:   1009  75  10  794
1477482177.720:   1004  75  10  794
1477482177.721:   1029  75  10  794
1477482177.721:   1032  75  10  794
1477482177.722:   1002  75  10  794
1477482177.722:    968  75  10  794
1477482177.722:    929  75  10  794
1477482177.722:    876  75  10  794
1477482177.723:    818  75  10  794
1477482177.723:    787  75  10  794
1477482177.723:    792  75  10  794
1477482177.724:    812  75  10  794
1477482177.724:    814  75  10  794
1477482177.724:    781  75  10  794
1477482177.724:    720  75  10  794
1477482177.725:    646  75  10  794
1477482177.725:    568  75  10  794
1477482177.750:    515  75  10  794
1477482177.750:    515  75  10  794
1477482177.750:    557  75  10  794
1477482177.751:    581  75  10  794
1477482177.751:    542  75  10  794
1477482177.751:    463  75  10  794
1477482177.752:    403  75  10  794
1477482177.752:    377  75  10  794
1477482177.752:    341  75  10  794
1477482177.752:    242  75  10  794
1477482177.752:    101  75  10  794
1477482177.753:      4  75  10  794
1477482177.753:     19  75  10  794
1477482177.754:    122  75  10  794
1477482177.754:    229  75  10  794
1477482177.755:    284  75  10  794
1477482177.755:    282  75  10  794
1477482177.755:    260  75  10  794
1477482177.755:    255  75  10  794
1477482177.756:    267  75  10  794
1477482177.756:    268  75  10  794
1477482177.756:    243  75  10  794
1477482177.756:    211  75  10  794
1477482177.757:    210  75  10  794
1477482177.757:    255  75  10  794
1477482177.757:    319  75  10  794
1477482177.757:    349  75  10  794
1477482177.761:    328  75  10  794
1477482177.761:    279  75  10  794
1477482177.762:    231  75  10  794
1477482177.762:    166  75  10  794
1477482177.762:     73  75  10  794
1477482177.764:    -21  75  10  794
1477482177.765:    -54  75  10  794
1477482177.769:    -13  75  10  794
1477482177.770:     51  75  10  794
1477482177.781:     72  75  10  794
1477482177.781:     38  75  10  794
1477482177.781:     -3  75  10  794
1477482177.781:     -9  75  10  794
1477482177.781:     -9  75  10  794
1477482177.782:    -41  75  10  794
1477482177.784:    -92  75  10  794
1477482177.785:   -106  75  10  794
1477482177.787:    -60  75  10  794
1477482177.789:     18  75  10  794
1477482177.790:     86  75  10  794
1477482177.794:    136  75  10  794
1477482177.803:    173  75  10  794
1477482177.803:    192  75  10  794
1477482177.803:    166  75  10  794
1477482177.804:    110  75  10  794
1477482177.804:     88  75  10  794
1477482177.806:    152  75  10  794
1477482177.806:    261  75  10  794
1477482177.809:    334  75  10  794
1477482177.810:    337  75  10  794
1477482177.812:    314  75  10  794
1477482177.817:    311  75  10  794
1477482177.818:    317  75  10  794
1477482177.819:    272  75  10  794
1477482177.845:    162  75  10  794
1477482177.857:     58  75  10  794
1477482177.858:     40  75  10  794
1477482177.858:    107  75  10  794
1477482177.858:    183  75  10  794
1477482177.859:    213  75  10  794
1477482177.859:    202  75  10  794
1477482177.859:    196  75  10  794
1477482177.859:    224  75  10  794
1477482177.859:    261  75  10  794
1477482177.860:    249  75  10  794
1477482177.860:    178  75  10  794
1477482177.860:    108  75  10  794
1477482177.860:    104  75  10  794
1477482177.860:    163  75  10  794
1477482177.861:    208  75  10  794
1477482177.861:    159  75  10  794
1477482177.861:     21  75  10  794
1477482177.861:   -111  75  10  794
1477482177.861:   -163  75  10  794
1477482177.862:   -166  75  10  794
1477482177.862:   -206  75  10  794
1477482177.865:   -302  75  10  794
1477482177.869:   -374  75  10  794
1477482177.869:   -342  75  10  794
1477482177.877:   -217  75  10  794
1477482177.877:   -107  75  10  794
1477482177.877:    -97  75  10  794
1477482177.877:   -168  75  10  794
1477482177.877:   -243  75  10  794
1477482177.880:   -288  75  10  794
1477482177.884:   -316  75  10  794
1477482177.886:   -333  75  10  794
1477482177.887:   -310  75  10  794
1477482177.890:   -233  75  10  794
1477482177.890:   -129  75  10  794
1477482177.890:    -58  75  10  794
1477482177.893:    -50  75  10  794
1477482177.895:    -76  75  10  794
1477482177.900:    -83  75  10  794
1477482177.900:    -78  75  10  794
1477482177.907:   -100  75  10  794
1477482177.908:   -157  75  10  794
1477482177.908:   -206  75  10  794
1477482177.909:   -201  75  10  794
1477482177.909:   -139  75  10  794
1477482177.914:    -71  75  10  794
1477482177.917:    -41  75  10  794
1477482177.918:    -48  75  10  794
1477482177.930:    -53  75  10  794
1477482177.931:    -50  75  10  794
1477482177.931:    -65  75  10  794
1477482177.931:   -112  75  10  794
1477482177.931:   -156  75  10  794
1477482177.931:   -154  75  10  794
1477482177.931:    -96  75  10  794
1477482177.932:    -22  75  10  794
1477482177.932:     30  75  10  794
1477482177.934:     53  75  10  794
1477482177.936:     66  75  10  794
1477482177.941:     69  75  10  794
1477482177.941:     44  75  10  794
1477482177.943:      0  75  10  794
1477482177.944:    -14  75  10  794
1477482177.945:     32  75  10  794
1477482177.955:    122  75  10  794
1477482177.955:    209  75  10  794
1477482177.955:    256  75  10  794
1477482177.955:    257  75  10  794
1477482177.964:    230  75  10  794
1477482177.964:    195  75  10  794
1477482177.964:    164  75  10  794
1477482177.964:    155  75  10  794
1477482177.965:    178  75  10  794
1477482177.971:    221  75  10  794
1477482177.972:    262  75  10  794
1477482177.973:    301  75  10  794
1477482177.974:    357  75  10  794
1477482177.975:    423  75  10  794
1477482177.976:    462  75  10  794
1477482177.977:    433  75  10  794
1477482177.982:    332  75  10  794
1477482177.982:    214  75  10  794
1477482177.990:    156  75  10  794
1477482177.990:    187  75  10  794
1477482177.990:    268  75  10  794
1477482177.990:    338  75  10  794
1477482177.991:    364  75  10  794
1477482177.998:    364  75  10  794
1477482177.998:    355  75  10  794
1477482177.998:    301  75  10  794
1477482178.000:    109  75  10  794
1477482178.000:   -259  75  10  794
1477482178.009:   -727  75  10  794
1477482178.009:  -1169  75  10  794
1477482178.011:  -1556  75  10  794
1477482178.011:  -1968  75  10  794
1477482178.012:  -2497  75  10  794
1477482178.013:  -3100  75  10  794
1477482178.015:  -3618  75  10  794
1477482178.017:  -3918  75  10  794
1477482178.019:  -3990  75  10  794
1477482178.021:  -3866  75  10  794
1477482178.023:  -3518  75  10  794
1477482178.025:  -2893  75  10  794
1477482178.028:  -2069  75  10  794
1477482178.028:  -1253  75  10  794
1477482178.030:   -625  75  10  794
1477482178.031:   -189  75  10  794
1477482178.034:    173  75  10  794
1477482178.036:    524  75  10  794
1477482178.037:    766  75  10  794
1477482178.042:    769  75  10  794
1477482178.051:    551  75  10  794
1477482178.051:    292  75  10  794
1477482178.051:    178  75  10  794
1477482178.051:    260  75  10  794
1477482178.051:    453  75  10  794
1477482178.053:    622  75  10  794
1477482178.056:    699  75  10  794
1477482178.056:    713  75  10  794
1477482178.058:    739  75  10  794
1477482178.059:    819  75  10  794
1477482178.062:    938  75  10  794
1477482178.063:   1044  75  10  794
1477482178.066:   1091  75  10  794
1477482178.071:   1085  75  10  794
1477482178.079:   1075  75  10  794
1477482178.079:   1090  75  10  794
1477482178.079:   1116  75  10  794
1477482178.079:   1129  75  10  794
1477482178.079:   1118  75  10  794
1477482178.080:   1090  75  10  794
1477482178.084:   1067  75  10  794
1477482178.084:   1067  75  10  794
1477482178.086:   1090  75  10  794
1477482178.088:   1109  75  10  794
1477482178.089:   1098  75  10  794
1477482178.092:   1043  75  10  794
1477482178.093:    969  75  10  794
1477482178.097:    919  75  10  794
1477482178.122:    924  75  10  794
1477482178.123:    959  75  10  794
1477482178.124:    976  75  10  794
1477482178.125:    946  75  10  794
1477482178.126:    892  75  10  794
1477482178.126:    857  75  10  794
1477482178.127:    881  75  10  794
1477482178.128:    961  75  10  794
1477482178.129:   1052  75  10  794
1477482178.130:   1090  75  10  794
1477482178.132:   1046  75  10  794
1477482178.132:    940  75  10  794
1477482178.147:    844  75  10  794
1477482178.148:    816  75  10  794
1477482178.149:    858  75  10  794
1477482178.149:    901  75  10  794
1477482178.150:    899  75  10  794
1477482178.150:    867  75  10  794
1477482178.151:    846  75  10  794
1477482178.152:    846  75  10  794
1477482178.152:    840  75  10  794
1477482178.154:    796  75  10  794
1477482178.155:    725  75  10  794
1477482178.155:    669  75  10  794
1477482178.156:    650  75  10  794
1477482178.157:    641  75  10  794
1477482178.158:    615  75  10  795
1477482178.159:    589  75  10  795
1477482178.159:    594  75  10  795
1477482178.159:    622  75  10  795
1477482178.159:    627  75  10  795
1477482178.162:    569  75  10  795
1477482178.163:    468  75  10  795
1477482178.163:    396  75  10  795
1477482178.164:    417  75  10  795
1477482178.166:    515  75  10  795
1477482178.190:    615  75  10  795
1477482178.190:    647  75  10  795
1477482178.190:    603  75  10  795
1477482178.191:    523  75  10  795
1477482178.191:    461  75  10  795
1477482178.191:    428  75  10  795
1477482178.191:    392  75  10  795
1477482178.191:    324  75  10  795
1477482178.191:    241  75  10  795
1477482178.191:    187  75  10  795
1477482178.192:    189  75  10  795
1477482178.192:    246  75  10  795
1477482178.193:    311  75  10  795
1477482178.194:    330  75  10  795
1477482178.195:    282  75  10  795
1477482178.197:    189  75  10  795
1477482178.202:     90  75  10  795
1477482178.202:     36  75  10  795
1477482178.215:     44  75  10  795
1477482178.215:     86  75  10  795
1477482178.215:    109  75  10  795
1477482178.215:     96  75  10  795
1477482178.215:     71  75  10  795
1477482178.216:     66  75  10  795
1477482178.216:     66  75  10  795
1477482178.218:     32  75  10  795
1477482178.219:    -48  75  10  795
1477482178.220:   -132  75  10  795
1477482178.223:   -168  75  10  795
1477482178.224:   -157  75  10  795
1477482178.230:   -148  75  10  795
1477482178.230:   -161  75  10  795
1477482178.231:   -161  75  10  795
1477482178.234:   -124  75  10  795
1477482178.235:    -84  75  10  795
1477482178.237:    -98  75  10  795
1477482178.238:   -187  75  10  795
1477482178.247:   -299  75  10  795
1477482178.269:   -358  75  10  795
1477482178.269:   -338  75  10  795
1477482178.270:   -275  75  10  795
1477482178.270:   -205  75  10  795
1477482178.270:   -138  75  10  795
1477482178.270:    -74  75  10  795
1477482178.270:    -31  75  10  795
1477482178.271:    -15  75  10  795
1477482178.271:    -14  75  10  795
1477482178.271:      0  75  10  795
1477482178.271:     37  75  10  795
1477482178.271:     88  75  10  795
1477482178.271:    139  75  10  795
1477482178.272:    184  75  10  795
1477482178.272:    221  75  10  795
1477482178.275:    235  75  10  795
1477482178.275:    198  75  10  795
1477482178.277:    130  75  10  795
1477482178.278:     78  75  10  795
1477482178.280:     57  75  10  795
1477482178.282:     47  75  10  795
1477482178.284:     18  75  10  795
1477482178.295:    -16  75  10  795
1477482178.296:     -5  75  10  795
1477482178.296:     80  75  10  795
1477482178.296:    183  75  10  795
1477482178.296:    209  75  10  795
1477482178.296:    128  75  10  795
1477482178.298:     -3  75  10  795
1477482178.302:   -108  75  10  795
1477482178.303:   -154  75  10  795
1477482178.304:   -161  75  10  795
1477482178.305:   -153  75  10  795
1477482178.306:   -141  75  10  795
1477482178.315:   -124  75  10  795
1477482178.315:   -112  75  10  795
1477482178.316:   -105  75  10  795
1477482178.316:    -85  75  10  795
1477482178.318:    -40  75  10  795
1477482178.319:     -9  75  10  795
1477482178.320:    -35  75  10  795
1477482178.322:   -102  75  10  795
1477482178.325:   -124  75  10  795
1477482178.330:    -45  75  10  795
1477482178.330:     98  75  10  795
1477482178.332:    201  75  10  795
1477482178.333:    203  75  10  795
1477482178.334:    136  75  10  795
1477482178.338:     77  75  10  795
1477482178.339:     40  75  10  795
1477482178.343:     12  75  10  795
1477482178.344:      5  75  10  795
1477482178.345:     52  75  10  795
1477482178.346:    150  75  10  795
1477482178.356:    244  75  10  795
1477482178.356:    294  75  10  795
1477482178.357:    327  75  10  795
1477482178.387:    387  75  10  795
1477482178.387:    461  75  10  795
1477482178.388:    473  75  10  795
1477482178.389:    382  75  10  795
1477482178.389:    261  75  10  795
1477482178.389:    225  75  10  795
1477482178.389:    296  75  10  795
1477482178.389:    383  75  10  795
1477482178.389:    404  75  10  795
1477482178.390:    371  75  10  795
1477482178.391:    350  75  10  795
1477482178.393:    374  75  10  795
1477482178.394:    403  75  10  795
1477482178.394:    385  75  10  795
1477482178.394:    341  75  10  795
1477482178.405:    338  75  10  795
1477482178.405:    394  75  10  795
1477482178.405:    473  75  10  795
1477482178.406:    544  75  10  795
1477482178.406:    607  75  10  795
1477482178.406:    667  75  10  795
1477482178.406:    696  75  10  795
1477482178.406:    663  75  10  795
1477482178.407:    583  75  10  795
1477482178.407:    520  75  10  795
1477482178.407:    516  75  10  795
1477482178.407:    538  75  10  795
1477482178.408:    524  75  10  795
1477482178.417:    480  75  10  795
1477482178.424:    465  75  10  795
1477482178.424:    502  75  10  795
1477482178.425:    534  75  10  795
1477482178.425:    496  75  10  795
1477482178.426:    396  75  10  795
1477482178.426:    322  75  10  795
1477482178.428:    336  75  10  795
1477482178.428:    404  75  10  795
1477482178.428:    434  75  10  795
1477482178.434:    395  75  10  795
1477482178.435:    324  75  10  795
1477482178.436:    257  75  10  795
1477482178.437:    182  75  10  795
1477482178.440:     68  75  10  795
1477482178.442:    -85  75  10  795
1477482178.443:   -225  75  10  795
1477482178.444:   -316  75  10  795
1477482178.444:   -365  75  10  795
1477482178.446:   -415  75  10  795
1477482178.449:   -470  75  10  795
1477482178.463:   -509  75  10  795
1477482178.552:   -523  75  10  795
1477482178.556:   -555  75  10  795
1477482178.557:   -656  75  10  795
1477482178.559:   -827  75  10  795
1477482178.559:  -1005  75  10  795
1477482178.559:  -1129  75  10  795
1477482178.560:  -1195  75  10  795
1477482178.574:  -1256  75  10  795
1477482178.574:  -1339  75  10  795
1477482178.574:  -1422  75  10  795
1477482178.574:  -1476  75  10  795
1477482178.574:  -1524  75  10  795
1477482178.574:  -1618  75  10  795
1477482178.574:  -1774  75  10  795
1477482178.575:  -1933  75  10  795
1477482178.575:  -2020  75  10  795
1477482178.575:  -2023  75  10  795
1477482178.575:  -2005  75  10  795
1477482178.575:  -2020  75  10  795
1477482178.575:  -2055  75  10  795
1477482178.575:  -2073  75  10  795
1477482178.576:  -2080  75  10  795
1477482178.576:  -2131  75  10  795
1477482178.576:  -2269  75  10  795
1477482178.576:  -2477  75  10  795
1477482178.576:  -2676  75  10  795
1477482178.576:  -2797  75  10  795
1477482178.576:  -2838  75  10  795
1477482178.577:  -2860  75  10  795
1477482178.577:  -2916  75  10  795
1477482178.577:  -3016  75  10  795
1477482178.577:  -3121  75  10  795
1477482178.578:  -3187  75  10  795
1477482178.578:  -3224  75  10  795
1477482178.578:  -3287  75  10  795
1477482178.578:  -3406  75  10  795
1477482178.578:  -3534  75  10  795
1477482178.579:  -3591  75  10  795
1477482178.579:  -3563  75  10  795
1477482178.579:  -3511  75  10  795
1477482178.579:  -3514  75  10  795
1477482178.579:  -3579  75  10  795
1477482178.579:  -3633  75  10  795
1477482178.580:  -3612  75  10  795
1477482178.580:  -3552  75  10  795
1477482178.580:  -3529  75  10  795
1477482178.580:  -3560  75  10  795
1477482178.580:  -3565  75  10  795
1477482178.580:  -3465  75  10  795
1477482178.581:  -3270  75  10  795
1477482178.581:  -3083  75  10  795
1477482178.581:  -3002  75  10  795
1477482178.581:  -3024  75  10  795
1477482178.581:  -3057  75  10  795
1477482178.581:  -3043  75  10  795
1477482178.581:  -2993  75  10  795
1477482178.582:  -2945  75  10  795
1477482178.582:  -2896  75  10  795
1477482178.582:  -2809  75  10  795
1477482178.582:  -2675  75  10  795
1477482178.582:  -2550  75  10  795
1477482178.582:  -2490  75  10  795
1477482178.582:  -2487  75  10  795
1477482178.583:  -2462  75  10  795
1477482178.583:  -2386  75  10  795
1477482178.583:  -2306  75  10  795
1477482178.583:  -2290  75  10  795
1477482178.583:  -2326  75  10  795
1477482178.586:  -2328  75  10  795
1477482178.588:  -2228  75  10  795
1477482178.590:  -2052  75  10  795
1477482178.605:  -1897  75  10  795
1477482178.606:  -1828  75  10  795
1477482178.606:  -1812  75  10  795
1477482178.606:  -1778  75  10  795
1477482178.606:  -1705  75  10  795
1477482178.606:  -1623  75  10  795
1477482178.606:  -1557  75  10  795
1477482178.607:  -1477  75  10  795
1477482178.610:  -1342  75  10  795
1477482178.610:  -1157  75  10  795
1477482178.613:   -985  75  10  795
1477482178.613:   -882  75  10  795
1477482178.616:   -827  75  10  795
1477482178.619:   -756  75  10  795
1477482178.624:   -646  75  10  795
1477482178.628:   -521  75  10  795
1477482178.629:   -405  75  10  795
1477482178.629:   -283  75  10  795
1477482178.631:   -139  75  10  795
1477482178.631:      8  75  10  795
1477482178.631:    102  75  10  795
1477482178.638:    129  75  10  795
1477482178.648:    141  75  10  795
1477482178.649:    196  75  10  795
1477482178.650:    268  75  10  795
1477482178.650:    303  75  10  795
1477482178.651:    304  75  10  795
1477482178.651:    346  75  10  795
1477482178.652:    478  75  10  795
1477482178.652:    663  75  10  795
1477482178.653:    810  75  10  795
1477482178.654:    877  75  10  795
1477482178.655:    901  75  10  795
1477482178.657:    936  75  10  795
1477482178.667:    970  75  10  795
1477482178.667:    976  75  10  795
1477482178.668:    972  75  10  795
1477482178.668:   1023  75  10  795
1477482178.668:   1158  75  10  795
1477482178.669:   1327  75  10  795
1477482178.671:   1448  75  10  795
1477482178.672:   1491  75  10  795
1477482178.675:   1485  75  10  795
1477482178.676:   1480  75  10  795
1477482178.678:   1479  75  10  795
1477482178.682:   1463  75  10  795
1477482178.682:   1438  75  10  795
1477482178.684:   1441  75  10  795
1477482178.687:   1491  75  10  795
1477482178.689:   1574  75  10  795
1477482178.690:   1658  75  10  795
1477482178.693:   1720  75  10  795
1477482178.696:   1755  75  10  795
1477482178.696:   1768  75  10  795
1477482178.698:   1752  75  10  795
1477482178.700:   1698  75  10  795
1477482178.706:   1624  75  10  795
1477482178.706:   1581  75  10  795
1477482178.715:   1604  75  10  795
1477482178.716:   1681  75  10  795
1477482178.716:   1770  75  10  795
1477482178.717:   1827  75  10  795
1477482178.717:   1843  75  10  795
1477482178.717:   1856  75  10  795
1477482178.720:   1903  75  10  795
1477482178.721:   1972  75  10  795
1477482178.723:   2012  75  10  795
1477482178.724:   1993  75  10  795
1477482178.736:   1945  75  10  795
1477482178.737:   1938  75  10  795
1477482178.737:   2010  75  10  795
1477482178.737:   2112  75  10  795
1477482178.737:   2151  75  10  795
1477482178.737:   2089  75  10  795
1477482178.737:   1978  75  10  795
1477482178.739:   1893  75  10  795
1477482178.741:   1874  75  10  795
1477482178.746:   1908  75  10  795
1477482178.760:   1966  75  10  795
1477482178.760:   2021  75  10  795
1477482178.761:   2057  75  10  795
1477482178.761:   2058  75  10  795
1477482178.762:   2031  75  10  795
1477482178.763:   2010  75  10  795
1477482178.764:   2014  75  10  795
1477482178.764:   2003  75  10  795
1477482178.765:   1937  75  10  795
1477482178.765:   1836  75  10  795
1477482178.766:   1791  75  10  795
1477482178.767:   1855  75  10  795
1477482178.769:   1992  75  10  795
1477482178.773:   2093  75  10  795
1477482178.774:   2096  75  10  795
1477482178.775:   2036  75  10  795
1477482178.778:   1965  75  10  795
1477482178.779:   1850  75  10  795
1477482178.780:   1623  75  10  795
1477482178.783:   1279  75  10  795
1477482178.787:    913  75  10  795
1477482178.787:    600  75  10  795
1477482178.801:    314  75  10  795
1477482178.802:    -50  75  10  795
1477482178.803:   -514  75  10  795
1477482178.804:   -972  75  10  795
1477482178.804:  -1286  75  10  795
1477482178.805:  -1421  75  10  795
1477482178.805:  -1416  75  10  795
1477482178.806:  -1258  75  10  795
1477482178.807:   -865  75  10  795
1477482178.807:   -231  75  10  795
1477482178.820:    492  75  10  795
1477482178.820:   1088  75  10  795
1477482178.820:   1476  75  10  795
1477482178.820:   1751  75  10  795
1477482178.820:   2028  75  10  795
1477482178.821:   2261  75  10  795
1477482178.822:   2295  75  10  795
1477482178.822:   2076  75  10  795
1477482178.824:   1747  75  10  795
1477482178.830:   1523  75  10  795
1477482178.832:   1500  75  10  795
1477482178.833:   1622  75  10  795
1477482178.834:   1768  75  10  795
1477482178.835:   1862  75  10  795
1477482178.836:   1913  75  10  795
1477482178.839:   1962  75  10  795
1477482178.844:   2035  75  10  795
1477482178.844:   2133  75  10  795
1477482178.855:   2235  75  10  795
1477482178.856:   2303  75  10  795
1477482178.856:   2309  75  10  795
1477482178.856:   2279  75  10  795
1477482178.857:   2245  75  10  795
1477482178.857:   2211  75  10  795
1477482178.857:   2163  75  10  795
1477482178.858:   2101  75  10  795
1477482178.860:   2053  75  10  795
1477482178.861:   2046  75  10  795
1477482178.864:   2076  75  10  795
1477482178.866:   2106  75  10  795
1477482178.875:   2106  75  10  795
1477482178.876:   2094  75  10  795
1477482178.876:   2095  75  10  795
1477482178.877:   2104  75  10  795
1477482178.877:   2093  75  10  795
1477482178.881:   2056  75  10  795
1477482178.884:   2007  75  10  795
