timestamp: ADC HeartRate4sAverage HeartRate30sAverage HRV8sAverage
1477472191.791:   4833  68   9  852
1477472191.791:   4069  68   9  852
1477472191.791:   3293  68   9  852
1477472191.791:   2621  68   9  852
1477472191.792:   2135  68   9  852
1477472191.796:   1812  68   9  852
1477472191.796:   1564  68   9  852
1477472191.798:   1334  68   9  852
1477472191.798:   1113  68   9  852
1477472191.811:    906  68   9  852
1477472191.811:    704  68   9  852
1477472191.812:    496  68   9  852
1477472191.812:    286  68   9  852
1477472191.812:     80  68   9  852
1477472191.812:   -129  68   9  852
1477472191.813:   -353  68   9  852
1477472191.814:   -587  68   9  852
1477472191.838:   -805  68   9  852
1477472191.840:   -987  68   9  852
1477472191.841:  -1138  68   9  852
1477472191.842:  -1275  68   9  852
1477472191.843:  -1399  68   9  852
1477472191.846:  -1493  68   9  852
1477472191.860:  -1554  68   9  852
1477472191.861:  -1606  68   9  852
1477472191.861:  -1672  68   9  852
1477472191.865:  -1744  68   9  852
1477472191.865:  -1792  68   9  852
1477472191.865:  -1801  68   9  852
1477472191.876:  -1796  68   9  852
1477472191.877:  -1819  68   9  852
1477472191.877:  -1888  68   9  852
1477472191.877:  -1978  68   9  852
1477472191.877:  -2056  68   9  852
1477472191.877:  -2120  68   9  852
1477472191.877:  -2197  68   9  852
1477472191.877:  -2296  68   9  852
1477472191.878:  -2393  68   9  852
1477472191.878:  -2454  68   9  852
1477472191.878:  -2471  68   9  852
1477472191.878:  -2468  68   9  852
1477472191.878:  -2474  68   9  852
1477472191.878:  -2487  68   9  852
1477472191.878:  -2483  68   9  852
1477472191.879:  -2442  68   9  852
1477472191.879:  -2368  68   9  852
1477472191.879:  -2285  68   9  852
1477472191.879:  -2216  68   9  852
1477472191.883:  -2164  68   9  852
1477472191.883:  -2124  68   9  852
1477472191.883:  -2092  68   9  852
1477472191.883:  -2072  68   9  852
1477472191.885:  -2063  68   9  852
1477472191.887:  -2061  68   9  852
1477472191.888:  -2059  68   9  852
1477472191.891:  -2058  68   9  852
1477472191.897:  -2061  68   9  852
1477472191.897:  -2065  68   9  852
1477472191.898:  -2059  68   9  852
1477472191.899:  -2040  68   9  852
1477472191.901:  -2016  68   9  852
1477472191.902:  -2006  68   9  852
1477472191.903:  -2016  68   9  852
1477472191.918:  -2039  68   9  852
1477472191.919:  -2061  68   9  852
1477472191.919:  -2078  68   9  852
1477472191.921:  -2097  68   9  852
1477472191.922:  -2122  68   9  852
1477472191.922:  -2151  68   9  852
1477472191.922:  -2175  68   9  852
1477472191.922:  -2194  68   9  852
1477472191.922:  -2217  68   9  852
1477472191.924:  -2250  68   9  852
1477472191.925:  -2290  68   9  852
1477472191.927:  -2332  68   9  852
1477472191.936:  -2380  68   9  852
1477472191.936:  -2441  68   9  852
1477472191.936:  -2518  68   9  852
1477472191.936:  -2600  68   9  852
1477472191.941:  -2672  68   9  852
1477472191.941:  -2727  68   9  852
1477472191.943:  -2775  68   9  852
1477472191.945:  -2829  68   9  852
1477472191.953:  -2889  68   9  852
1477472191.954:  -2943  68   9  852
1477472191.954:  -2989  68   9  852
1477472191.956:  -3037  68   9  852
1477472191.959:  -3107  68   9  852
1477472191.960:  -3200  68   9  852
1477472191.964:  -3302  68   9  852
1477472191.965:  -3391  68   9  852
1477472191.972:  -3457  68   9  852
1477472191.973:  -3514  68   9  852
1477472191.973:  -3580  68   9  852
1477472191.973:  -3665  68   9  852
1477472191.974:  -3761  68   9  852
1477472191.976:  -3848  68   9  852
1477472191.976:  -3914  68   9  852
1477472191.979:  -3962  68   9  852
1477472191.979:  -4004  68   9  852
1477472191.981:  -4051  68   9  852
1477472191.982:  -4099  68   9  852
1477472191.983:  -4137  68   9  852
1477472191.984:  -4156  68   9  852
1477472191.985:  -4162  68   9  852
1477472191.989:  -4170  68   9  852
1477472191.989:  -4194  68   9  852
1477472192.005:  -4228  68   9  852
1477472192.006:  -4256  68   9  852
1477472192.006:  -4260  68   9  852
1477472192.007:  -4237  68   9  852
1477472192.008:  -4194  68   9  852
1477472192.009:  -4145  68   9  852
1477472192.011:  -4094  68   9  852
1477472192.011:  -4034  68   9  852
1477472192.012:  -3960  68   9  852
1477472192.012:  -3880  68   9  852
1477472192.024:  -3806  68   9  852
1477472192.025:  -3741  68   9  852
1477472192.025:  -3670  68   9  852
1477472192.026:  -3576  68   9  852
1477472192.026:  -3459  68   9  852
1477472192.027:  -3338  68   9  852
1477472192.028:  -3227  68   9  852
1477472192.028:  -3119  68   9  852
1477472192.029:  -2996  68   9  852
1477472192.030:  -2847  68   9  852
1477472192.033:  -2683  68   9  852
1477472192.036:  -2522  68   9  852
1477472192.037:  -2369  68   9  852
1477472192.047:  -2211  68   9  852
1477472192.062:  -2036  68   9  852
1477472192.063:  -1849  68   9  852
1477472192.064:  -1666  68   9  852
1477472192.064:  -1498  68   9  852
1477472192.065:  -1338  68   9  852
1477472192.066:  -1172  68   9  852
1477472192.066:   -996  68   9  852
1477472192.067:   -816  68   9  852
1477472192.068:   -646  68   9  852
1477472192.068:   -489  68   9  852
1477472192.069:   -344  68   9  852
1477472192.072:   -206  68   9  852
1477472192.073:    -74  68   9  852
1477472192.073:     56  68   9  852
1477472192.074:    190  68   9  852
1477472192.076:    337  68   9  852
1477472192.094:    495  68   9  852
1477472192.095:    648  68   9  852
1477472192.096:    777  68   9  852
1477472192.097:    872  68   9  852
1477472192.097:    942  68   9  852
1477472192.098:   1001  68   9  852
1477472192.098:   1063  68   9  852
1477472192.099:   1124  68   9  852
1477472192.099:   1182  68   9  852
1477472192.099:   1239  68   9  852
1477472192.099:   1307  68   9  852
1477472192.099:   1395  68   9  852
1477472192.100:   1496  68   9  852
1477472192.101:   1588  68   9  852
1477472192.102:   1650  68   9  852
1477472192.103:   1681  68   9  852
1477472192.104:   1694  68   9  852
1477472192.106:   1707  68   9  852
1477472192.107:   1729  68   9  852
1477472192.108:   1759  68   9  852
1477472192.113:   1792  68   9  852
1477472192.113:   1822  68   9  852
1477472192.114:   1847  68   9  852
1477472192.115:   1863  68   9  852
1477472192.132:   1867  68   9  852
1477472192.133:   1859  68   9  852
1477472192.134:   1843  68   9  852
1477472192.134:   1823  68   9  852
1477472192.135:   1806  68   9  852
1477472192.139:   1797  68   9  852
1477472192.140:   1797  68   9  852
1477472192.141:   1803  68   9  852
1477472192.142:   1805  68   9  852
1477472192.143:   1795  68   9  852
1477472192.144:   1771  68   9  852
1477472192.144:   1741  68   9  852
1477472192.146:   1713  68   9  852
1477472192.149:   1690  68   9  852
1477472192.150:   1669  68   9  852
1477472192.154:   1650  68   9  852
1477472192.174:   1634  68   9  852
1477472192.175:   1626  68   9  852
1477472192.175:   1623  68   9  852
1477472192.175:   1619  68   9  852
1477472192.176:   1609  68   9  852
1477472192.176:   1593  68   9  852
1477472192.178:   1580  68   9  852
1477472192.178:   1573  68   9  852
1477472192.178:   1569  68   9  852
1477472192.178:   1560  68   9  852
1477472192.189:   1546  68   9  852
1477472192.190:   1534  68   9  852
1477472192.190:   1528  68   9  852
1477472192.190:   1522  68   9  852
1477472192.190:   1504  68   9  852
1477472192.190:   1471  68   9  852
1477472192.190:   1438  68   9  852
1477472192.191:   1419  68   9  852
1477472192.191:   1419  68   9  852
1477472192.191:   1426  68   9  852
1477472192.191:   1425  68   9  852
1477472192.192:   1416  66   8  876
1477472192.197:   1405  66   8  876
1477472192.198:   1395  66   8  876
1477472192.207:   1384  66   8  876
1477472192.207:   1368  66   8  876
1477472192.207:   1348  66   8  876
1477472192.209:   1326  66   8  876
1477472192.210:   1303  66   8  876
1477472192.212:   1279  66   8  876
1477472192.222:   1259  66   8  876
1477472192.223:   1248  66   8  876
1477472192.223:   1242  66   8  876
1477472192.223:   1233  66   8  876
1477472192.224:   1213  66   8  876
1477472192.224:   1185  66   8  876
1477472192.224:   1157  66   8  876
1477472192.224:   1132  66   8  876
1477472192.224:   1109  66   8  876
1477472192.227:   1088  66   8  876
1477472192.228:   1072  66   8  876
1477472192.229:   1062  66   8  876
1477472192.240:   1052  66   8  876
1477472192.240:   1035  66   8  876
1477472192.240:   1011  66   8  876
1477472192.240:    989  66   8  876
1477472192.245:    973  66   8  876
1477472192.245:    956  66   8  876
1477472192.246:    932  66   8  876
1477472192.248:    903  66   8  876
1477472192.249:    881  66   8  876
1477472192.252:    870  66   8  876
1477472192.253:    864  66   8  876
1477472192.255:    854  66   8  876
1477472192.256:    839  66   8  876
1477472192.263:    828  66   8  876
1477472192.278:    825  66   8  876
1477472192.278:    827  66   8  876
1477472192.278:    827  66   8  876
1477472192.279:    825  66   8  876
1477472192.279:    824  66   8  876
1477472192.279:    828  66   8  876
1477472192.280:    834  66   8  876
1477472192.280:    837  66   8  876
1477472192.280:    835  66   8  876
1477472192.280:    830  66   8  876
1477472192.281:    825  66   8  876
1477472192.283:    820  66   8  876
1477472192.283:    813  66   8  876
1477472192.285:    805  66   8  876
1477472192.287:    796  66   8  876
1477472192.290:    788  66   8  876
1477472192.291:    781  66   8  876
1477472192.292:    775  66   8  876
1477472192.296:    771  66   8  876
1477472192.297:    768  66   8  876
1477472192.304:    766  66   8  876
1477472192.304:    764  66   8  876
1477472192.305:    763  66   8  876
1477472192.306:    762  66   8  876
1477472192.308:    756  66   8  876
1477472192.313:    740  66   8  876
1477472192.321:    720  66   8  876
1477472192.321:    707  66   8  876
1477472192.322:    710  66   8  876
1477472192.322:    719  66   8  876
1477472192.323:    722  66   8  876
1477472192.327:    715  66   8  876
1477472192.328:    712  66   8  876
1477472192.329:    729  66   8  876
1477472192.332:    761  66   8  876
1477472192.333:    785  66   8  876
1477472192.334:    786  66   8  876
1477472192.335:    771  66   8  876
1477472192.339:    762  66   8  876
1477472192.340:    770  66   8  876
1477472192.340:    787  66   8  876
1477472192.344:    800  66   8  876
1477472192.358:    807  66   8  876
1477472192.359:    808  66   8  876
1477472192.359:    795  66   8  876
1477472192.359:    761  66   8  876
1477472192.359:    716  66   8  876
1477472192.359:    684  66   8  876
1477472192.359:    683  66   8  876
1477472192.359:    703  66   8  876
1477472192.360:    721  66   8  876
1477472192.361:    729  66   8  876
1477472192.364:    740  66   8  876
1477472192.364:    763  66   8  876
1477472192.366:    787  66   8  876
1477472192.369:    797  66   8  876
1477472192.403:    797  66   8  876
1477472192.404:    802  66   8  876
1477472192.404:    812  66   8  876
1477472192.404:    803  66   8  876
1477472192.405:    760  66   8  876
1477472192.405:    704  66   8  876
1477472192.405:    675  66   8  876
1477472192.405:    684  66   8  876
1477472192.406:    699  66   8  876
1477472192.406:    681  66   8  876
1477472192.406:    632  66   8  876
1477472192.407:    587  66   8  876
1477472192.407:    573  66   8  876
1477472192.408:    573  66   8  876
1477472192.408:    553  66   8  876
1477472192.409:    507  66   8  876
1477472192.409:    461  66   8  876
1477472192.409:    442  66   8  876
1477472192.410:    448  66   8  876
1477472192.410:    456  66   8  876
1477472192.411:    454  66   8  876
1477472192.412:    455  66   8  876
1477472192.414:    476  66   8  876
1477472192.415:    512  66   8  876
1477472192.429:    536  66   8  876
1477472192.429:    534  66   8  876
1477472192.430:    512  66   8  876
1477472192.430:    490  66   8  876
1477472192.430:    478  66   8  876
1477472192.431:    470  66   8  876
1477472192.432:    455  66   8  876
1477472192.433:    436  66   8  876
1477472192.434:    427  66   8  876
1477472192.435:    436  66   8  876
1477472192.439:    452  66   8  876
1477472192.439:    459  66   8  876
1477472192.447:    452  66   8  876
1477472192.448:    438  66   8  876
1477472192.449:    429  66   8  876
1477472192.449:    433  66   8  876
1477472192.450:    445  66   8  876
1477472192.451:    452  66   8  876
1477472192.451:    443  66   8  876
1477472192.454:    424  66   8  876
1477472192.464:    407  66   8  876
1477472192.486:    397  66   8  876
1477472192.487:    390  66   8  876
1477472192.487:    379  66   8  876
1477472192.490:    365  66   8  876
1477472192.491:    352  66   8  876
1477472192.499:    335  66   8  876
1477472192.580:    308  66   8  876
1477472192.581:    273  66   8  876
1477472192.581:    248  66   8  876
1477472192.581:    252  66   8  876
1477472192.581:    276  66   8  876
1477472192.582:    296  66   8  876
1477472192.582:    297  66   8  876
1477472192.582:    298  66   8  876
1477472192.582:    322  66   8  876
1477472192.582:    362  66   8  876
1477472192.583:    379  66   8  876
1477472192.583:    351  66   8  876
1477472192.583:    300  66   8  876
1477472192.583:    270  66   8  876
1477472192.583:    276  66   8  876
1477472192.584:    286  66   8  876
1477472192.584:    270  66   8  876
1477472192.584:    237  66   8  876
1477472192.584:    219  66   8  876
1477472192.584:    226  66   8  876
1477472192.585:    234  66   8  876
1477472192.585:    223  66   8  876
1477472192.585:    207  66   8  876
1477472192.585:    213  66   8  876
1477472192.585:    246  66   8  876
1477472192.586:    282  66   8  876
1477472192.586:    307  66   8  876
1477472192.586:    330  66   8  876
1477472192.586:    364  66   8  876
1477472192.587:    396  66   8  876
1477472192.587:    402  66   8  876
1477472192.587:    376  66   8  876
1477472192.587:    345  66   8  876
1477472192.587:    333  66   8  876
1477472192.588:    326  66   8  876
1477472192.588:    296  66   8  876
1477472192.588:    239  66   8  876
1477472192.589:    185  66   8  876
1477472192.589:    161  66   8  876
1477472192.589:    162  66   8  876
1477472192.589:    160  66   8  876
1477472192.590:    150  66   8  876
1477472192.590:    149  66   8  876
1477472192.590:    168  66   8  876
1477472192.590:    189  66   8  876
1477472192.604:    187  66   8  876
1477472192.604:    162  66   8  876
1477472192.604:    142  66   8  876
1477472192.604:    145  66   8  876
1477472192.605:    162  66   8  876
1477472192.605:    166  66   8  876
1477472192.605:    150  66   8  876
1477472192.606:    132  66   8  876
1477472192.606:    129  66   8  876
1477472192.606:    140  66   8  876
1477472192.606:    143  66   8  876
1477472192.606:    125  66   8  876
1477472192.606:     91  66   8  876
1477472192.607:     58  66   8  876
1477472192.607:     43  66   8  876
1477472192.607:     50  66   8  876
1477472192.607:     78  66   8  876
1477472192.607:    114  66   8  876
1477472192.607:    138  66   8  876
1477472192.609:    140  66   8  876
1477472192.609:    127  66   8  876
1477472192.609:    113  66   8  876
1477472192.610:    103  66   8  876
1477472192.612:     87  66   8  876
1477472192.612:     59  66   8  876
1477472192.614:     33  66   8  876
1477472192.616:     32  66   8  876
1477472192.616:     54  66   8  876
1477472192.617:     77  66   8  876
1477472192.618:     83  66   8  876
1477472192.620:     75  66   8  876
1477472192.622:     73  66   8  876
1477472192.623:     82  66   8  876
1477472192.624:     87  66   8  876
1477472192.645:     75  66   8  876
1477472192.645:     57  66   8  876
1477472192.647:     49  66   8  876
1477472192.647:     51  66   8  876
1477472192.648:     46  66   8  876
1477472192.649:     21  66   8  876
1477472192.650:    -19  66   8  876
1477472192.650:    -54  66   8  876
1477472192.651:    -75  66   8  876
1477472192.651:    -88  66   8  876
1477472192.652:   -102  66   8  876
1477472192.653:   -115  66   8  876
1477472192.653:   -122  66   8  876
1477472192.658:   -118  66   8  876
1477472192.666:   -103  66   8  876
1477472192.668:    -82  66   8  876
1477472192.669:    -60  66   8  876
1477472192.669:    -42  66   8  876
1477472192.670:    -31  66   8  876
1477472192.671:    -16  66   8  876
1477472192.683:     10  83  11  845
1477472192.684:     44  83  11  845
1477472192.685:     59  83  11  845
1477472192.686:     39  83  11  845
1477472192.687:    -15  83  11  845
1477472192.689:    -90  83  11  845
1477472192.690:   -188  83  11  845
1477472192.690:   -316  83  11  845
1477472192.691:   -452  83  11  845
1477472192.692:   -537  83  11  845
1477472192.706:   -521  83  11  845
1477472192.706:   -418  83  11  845
1477472192.706:   -279  83  11  845
1477472192.706:   -113  83  11  845
1477472192.707:    159  83  11  845
1477472192.707:    640  83  11  845
1477472192.707:   1352  83  11  845
1477472192.707:   2195  83  11  845
1477472192.707:   3028  83  11  845
1477472192.708:   3777  83  11  845
1477472192.708:   4470  83  11  845
1477472192.708:   5168  83  11  845
1477472192.709:   5874  83  11  845
1477472192.709:   6513  83  11  845
1477472192.713:   6990  83  11  845
1477472192.713:   7261  83  11  845
1477472192.715:   7352  83  11  845
1477472192.716:   7324  83  11  845
1477472192.719:   7219  83  11  845
1477472192.722:   7038  83  11  845
1477472192.723:   6779  83  11  845
1477472192.727:   6456  83  11  845
1477472192.729:   6112  83  11  845
1477472192.730:   5792  83  11  845
1477472192.730:   5519  83  11  845
1477472192.732:   5300  83  11  845
1477472192.735:   5124  83  11  845
1477472192.736:   4968  83  11  845
1477472192.753:   4799  83  11  845
1477472192.757:   4600  83  11  845
1477472192.757:   4377  83  11  845
1477472192.757:   4133  83  11  845
1477472192.758:   3835  83  11  845
1477472192.758:   3425  83  11  845
1477472192.758:   2887  83  11  845
1477472192.758:   2288  83  11  845
1477472192.758:   1734  83  11  845
1477472192.759:   1267  83  11  845
1477472192.759:    839  83  11  845
1477472192.760:    378  83  11  845
1477472192.761:   -118  83  11  845
1477472192.768:   -572  83  11  845
1477472192.768:   -909  83  11  845
1477472192.769:  -1130  83  11  845
1477472192.771:  -1300  83  11  845
1477472192.771:  -1470  83  11  845
1477472192.774:  -1642  83  11  845
1477472192.775:  -1784  83  11  845
1477472192.782:  -1883  83  11  845
1477472192.783:  -1951  83  11  845
1477472192.799:  -2010  83  11  845
1477472192.800:  -2061  83  11  845
1477472192.801:  -2090  83  11  845
1477472192.801:  -2093  83  11  845
1477472192.802:  -2092  83  11  845
1477472192.803:  -2118  83  11  845
1477472192.803:  -2180  83  11  845
1477472192.804:  -2251  83  11  845
1477472192.805:  -2294  83  11  845
1477472192.805:  -2290  83  11  845
1477472192.806:  -2253  83  11  845
1477472192.807:  -2207  83  11  845
1477472192.818:  -2167  83  11  845
1477472192.818:  -2127  83  11  845
1477472192.819:  -2084  83  11  845
1477472192.820:  -2052  83  11  845
1477472192.821:  -2044  83  11  845
1477472192.821:  -2054  83  11  845
1477472192.822:  -2056  83  11  845
1477472192.823:  -2032  83  11  845
1477472192.823:  -1992  83  11  845
1477472192.824:  -1959  83  11  845
1477472192.827:  -1943  83  11  845
1477472192.828:  -1930  83  11  845
1477472192.838:  -1902  83  11  845
1477472192.839:  -1867  83  11  845
1477472192.840:  -1845  83  11  845
1477472192.840:  -1846  83  11  845
1477472192.841:  -1867  83  11  845
1477472192.842:  -1893  83  11  845
1477472192.843:  -1913  83  11  845
1477472192.843:  -1920  83  11  845
1477472192.844:  -1910  83  11  845
1477472192.846:  -1890  83  11  845
1477472192.849:  -1869  83  11  845
1477472192.850:  -1851  83  11  845
1477472192.855:  -1831  83  11  845
1477472192.858:  -1803  83  11  845
1477472192.858:  -1783  83  11  845
1477472192.859:  -1792  83  11  845
1477472192.860:  -1830  83  11  845
1477472192.862:  -1865  83  11  845
1477472192.863:  -1863  83  11  845
1477472192.868:  -1823  83  11  845
1477472192.868:  -1781  83  11  845
1477472192.869:  -1764  83  11  845
1477472192.902:  -1762  83  11  845
1477472192.902:  -1747  83  11  845
1477472192.903:  -1711  83  11  845
1477472192.903:  -1679  83  11  845
1477472192.903:  -1681  83  11  845
1477472192.905:  -1717  83  11  845
1477472192.906:  -1766  83  11  845
1477472192.907:  -1806  83  11  845
1477472192.908:  -1835  83  11  845
1477472192.908:  -1859  83  11  845
1477472192.909:  -1873  83  11  845
1477472192.909:  -1871  83  11  845
1477472192.909:  -1857  83  11  845
1477472192.910:  -1851  83  11  845
1477472192.910:  -1875  83  11  845
1477472192.910:  -1931  83  11  845
1477472192.911:  -1994  83  11  845
1477472192.911:  -2037  83  11  845
1477472192.911:  -2053  83  11  845
1477472192.913:  -2062  83  11  845
1477472192.914:  -2093  83  11  845
1477472192.914:  -2153  83  11  845
1477472192.918:  -2222  83  11  845
1477472192.919:  -2277  83  11  845
1477472192.930:  -2321  83  11  845
1477472192.931:  -2378  83  11  845
1477472192.932:  -2462  83  11  845
1477472192.933:  -2555  83  11  845
1477472192.934:  -2630  83  11  845
1477472192.935:  -2678  83  11  845
1477472192.936:  -2719  83  11  845
1477472192.938:  -2775  83  11  845
1477472192.949:  -2846  83  11  845
1477472192.950:  -2918  83  11  845
1477472192.951:  -2986  83  11  845
1477472192.952:  -3067  83  11  845
1477472192.952:  -3169  83  11  845
1477472192.953:  -3276  83  11  845
1477472192.954:  -3363  83  11  845
1477472192.957:  -3425  83  11  845
1477472192.969:  -3482  83  11  845
1477472192.969:  -3553  83  11  845
1477472192.971:  -3630  83  11  845
1477472192.971:  -3692  83  11  845
1477472192.972:  -3728  83  11  845
1477472192.973:  -3755  83  11  845
1477472192.973:  -3794  83  11  845
1477472192.974:  -3843  83  11  845
1477472192.974:  -3878  83  11  845
1477472192.975:  -3883  83  11  845
1477472192.976:  -3865  83  11  845
1477472192.977:  -3846  83  11  845
1477472192.987:  -3839  83  11  845
1477472193.130:  -3833  83  11  845
1477472193.130:  -3809  83  11  845
1477472193.130:  -3760  83  11  845
1477472193.130:  -3696  83  11  845
1477472193.130:  -3627  83  11  845
1477472193.131:  -3554  83  11  845
1477472193.131:  -3473  83  11  845
1477472193.131:  -3375  83  11  845
1477472193.131:  -3260  83  11  845
1477472193.132:  -3131  83  11  845
1477472193.132:  -2998  83  11  845
1477472193.132:  -2865  83  11  845
1477472193.132:  -2734  83  11  845
1477472193.132:  -2596  83  11  845
1477472193.132:  -2438  83  11  845
1477472193.132:  -2259  83  11  845
1477472193.133:  -2078  83  11  845
1477472193.133:  -1915  83  11  845
1477472193.133:  -1769  83  11  845
1477472193.133:  -1621  83  11  845
1477472193.133:  -1458  83  11  845
1477472193.133:  -1287  83  11  845
1477472193.134:  -1126  83  11  845
1477472193.134:   -984  83  11  845
1477472193.134:   -850  83  11  845
1477472193.134:   -708  83  11  845
1477472193.134:   -564  83  11  845
1477472193.134:   -430  83  11  845
1477472193.134:   -315  83  11  845
1477472193.135:   -217  83  11  845
1477472193.135:   -128  83  11  845
1477472193.135:    -46  83  11  845
1477472193.135:     30  83  11  845
1477472193.135:    102  83  11  845
1477472193.135:    167  83  11  845
1477472193.135:    216  83  11  845
1477472193.136:    242  83  11  845
1477472193.136:    251  83  11  845
1477472193.136:    261  83  11  845
1477472193.136:    281  83  11  845
1477472193.139:    301  83  11  845
1477472193.139:    306  83  11  845
1477472193.139:    297  83  11  845
1477472193.139:    287  83  11  845
1477472193.140:    285  83  11  845
1477472193.141:    285  83  11  845
1477472193.141:    275  83  11  845
1477472193.141:    259  83  11  845
1477472193.141:    243  83  11  845
1477472193.142:    219  83  11  845
1477472193.142:    175  83  11  845
1477472193.142:    113  83  11  845
1477472193.142:     56  83  11  845
1477472193.142:     26  83  11  845
1477472193.142:     22  83  11  845
1477472193.162:     19  83  11  845
1477472193.162:      0  83  11  845
1477472193.162:    -27  83  11  845
1477472193.162:    -39  83  11  845
1477472193.163:    -26  83  11  845
1477472193.163:     -5  83  11  845
1477472193.163:      0  83  11  845
1477472193.164:    -17  83  11  845
1477472193.164:    -44  83  11  845
1477472193.164:    -62  83  11  845
1477472193.164:    -68  83  11  845
1477472193.164:    -70  83  11  845
1477472193.164:    -75  83  11  845
1477472193.165:    -80  83  11  845
1477472193.165:    -77  83  11  845
1477472193.166:    -68  83  11  845
1477472193.166:    -68  83  11  845
1477472193.166:    -89  83  11  845
1477472193.166:   -125  83  11  845
1477472193.167:   -152  83  11  845
1477472193.167:   -154  83  11  845
1477472193.167:   -135  83  11  845
1477472193.167:   -119  83  11  845
1477472193.167:   -119  83  11  845
1477472193.168:   -125  83  11  845
1477472193.168:   -119  83  11  845
1477472193.168:    -97  83  11  845
1477472193.168:    -79  83  11  845
1477472193.168:    -88  83  11  845
1477472193.168:   -127  83  11  845
1477472193.169:   -179  83  11  845
1477472193.169:   -221  83  11  845
1477472193.169:   -249  83  11  845
1477472193.169:   -273  83  11  845
1477472193.169:   -302  83  11  845
1477472193.169:   -336  83  11  845
1477472193.170:   -364  83  11  845
1477472193.170:   -376  83  11  845
1477472193.170:   -373  83  11  845
1477472193.170:   -367  83  11  845
1477472193.170:   -369  83  11  845
1477472193.170:   -374  83  11  845
1477472193.171:   -369  83  11  845
1477472193.176:   -350  83  11  845
1477472193.187:   -327  83  11  845
1477472193.187:   -316  83  11  845
1477472193.187:   -320  83  11  845
1477472193.187:   -326  83  11  845
1477472193.187:   -321  83  11  845
1477472193.188:   -300  83  11  845
1477472193.188:   -275  83  11  845
1477472193.189:   -258  83  11  845
1477472193.189:   -252  83  11  845
1477472193.189:   -254  83  11  845
1477472193.189:   -261  83  11  845
1477472193.191:   -270  83  11  845
1477472193.193:   -280  83  11  845
1477472193.197:   -291  83  11  845
1477472193.210:   -304  83  11  845
1477472193.210:   -320  83  11  845
1477472193.210:   -340  83  11  845
1477472193.211:   -356  83  11  845
1477472193.211:   -359  83  11  845
1477472193.211:   -348  83  11  845
1477472193.214:   -332  83  11  845
1477472193.214:   -318  83  11  845
1477472193.214:   -306  83  11  845
1477472193.215:   -288  83  11  845
1477472193.217:   -261  83  11  845
1477472193.219:   -231  83  11  845
1477472193.244:   -207  83  11  845
1477472193.244:   -193  83  11  845
1477472193.244:   -184  83  11  845
1477472193.245:   -169  83  11  845
1477472193.245:   -152  83  11  845
1477472193.246:   -140  83  11  845
1477472193.246:   -144  83  11  845
1477472193.246:   -159  83  11  845
1477472193.247:   -174  83  11  845
1477472193.247:   -179  83  11  845
1477472193.247:   -177  83  11  845
1477472193.247:   -175  83  11  845
1477472193.248:   -177  83  11  845
1477472193.248:   -178  83  11  845
1477472193.248:   -173  83  11  845
1477472193.251:   -164  83  11  845
1477472193.253:   -157  83  11  845
1477472193.256:   -150  83  11  845
1477472193.257:   -139  83  11  845
1477472193.258:   -123  83  11  845
1477472193.259:   -110  83  11  845
1477472193.266:   -105  83  11  845
1477472193.272:   -107  83  11  845
1477472193.272:   -101  83  11  845
1477472193.272:    -80  83  11  845
1477472193.272:    -50  83  11  845
1477472193.272:    -29  83  11  845
1477472193.274:    -25  83  11  845
1477472193.275:    -28  83  11  845
1477472193.278:    -22  83  11  845
1477472193.280:     -3  83  11  845
1477472193.283:     17  83  11  845
1477472193.290:     25  83  11  845
1477472193.290:     25  83  11  845
1477472193.290:     30  83  11  845
1477472193.290:     51  83  11  845
1477472193.291:     77  83  11  845
1477472193.293:     92  83  11  845
1477472193.298:     89  83  11  845
1477472193.298:     80  83  11  845
1477472193.302:     79  83  11  845
1477472193.303:     88  83  11  845
1477472193.305:     96  83  11  845
1477472193.305:     94  83  11  845
1477472193.307:     84  83  11  845
1477472193.311:     78  83  11  845
1477472193.326:     85  83  11  845
1477472193.326:    103  83  11  845
1477472193.326:    121  83  11  845
1477472193.326:    130  83  11  845
1477472193.327:    132  83  11  845
1477472193.327:    136  83  11  845
1477472193.328:    151  83  11  845
1477472193.328:    176  83  11  845
1477472193.329:    198  83  11  845
1477472193.329:    209  83  11  845
1477472193.334:    212  83  11  845
1477472193.334:    221  83  11  845
1477472193.335:    239  83  11  845
1477472193.339:    258  83  11  845
1477472193.347:    264  83  11  845
1477472193.348:    253  83  11  845
1477472193.348:    238  83  11  845
1477472193.348:    231  83  11  845
1477472193.348:    234  83  11  845
1477472193.349:    236  83  11  845
1477472193.353:    231  83  11  845
1477472193.353:    218  83  11  845
1477472193.356:    206  83  11  845
1477472193.357:    195  83  11  845
1477472193.367:    188  83  11  845
1477472193.368:    182  83  11  845
1477472193.368:    178  83  11  845
1477472193.369:    178  83  11  845
1477472193.369:    183  83  11  845
1477472193.369:    189  83  11  845
1477472193.370:    194  83  11  845
1477472193.376:    199  83  11  845
1477472193.385:    203  83  11  845
1477472193.385:    202  83  11  845
1477472193.385:    190  83  11  845
1477472193.385:    169  83  11  845
1477472193.386:    146  83  11  845
1477472193.386:    114  83  11  845
1477472193.386:     44  83  11  845
1477472193.388:    -85  83  11  845
1477472193.389:   -241  83  11  845
1477472193.393:   -342  83  11  845
1477472193.393:   -329  83  11  845
1477472193.395:   -221  83  11  845
1477472193.405:    -88  83  11  845
1477472193.405:     58  83  11  845
1477472193.405:    310  83  11  845
1477472193.405:    787  83  11  845
1477472193.407:   1512  83  11  845
1477472193.408:   2374  83  11  845
1477472193.411:   3229  83  11  845
1477472193.411:   4003  83  11  845
1477472193.415:   4714  83  11  845
1477472193.415:   5409  83  11  845
1477472193.425:   6096  83  11  845
1477472193.426:   6730  83  11  845
1477472193.426:   7247  83  11  845
1477472193.426:   7594  83  11  845
1477472193.426:   7755  83  11  845
1477472193.426:   7759  83  11  845
1477472193.430:   7669  83  11  845
1477472193.431:   7531  83  11  845
1477472193.436:   7353  83  11  845
1477472193.436:   7107  83  11  845
1477472193.437:   6780  83  11  845
1477472193.439:   6404  83  11  845
1477472193.452:   6050  83  11  845
1477472193.452:   5781  83  11  845
1477472193.452:   5597  83  11  845
1477472193.452:   5445  83  11  845
1477472193.452:   5258  83  11  845
1477472193.452:   5007  83  11  845
1477472193.453:   4723  83  11  845
1477472193.457:   4432  83  11  845
1477472193.457:   4093  83  11  845
1477472193.459:   3614  83  11  845
1477472193.461:   2951  83  11  845
1477472193.462:   2192  83  11  845
1477472193.472:   1505  83  11  845
1477472193.472:   1001  83  11  845
1477472193.472:    645  83  11  845
1477472193.473:    317  83  11  845
1477472193.473:    -50  83  11  845
1477472193.476:   -424  83  11  845
1477472193.476:   -734  83  11  845
1477472193.478:   -965  83  11  845
1477472193.480:  -1160  83  11  845
1477472193.484:  -1357  83  11  845
1477472193.492:  -1550  83  11  845
1477472193.493:  -1707  83  11  845
1477472193.493:  -1810  83  11  845
1477472193.493:  -1864  83  11  845
1477472193.493:  -1885  83  11  845
1477472193.494:  -1878  83  11  845
1477472193.499:  -1849  83  11  845
1477472193.500:  -1821  83  11  845
1477472193.500:  -1823  83  11  845
1477472193.502:  -1871  83  11  845
1477472193.503:  -1952  83  11  845
1477472193.505:  -2033  83  11  845
1477472193.508:  -2090  83  11  845
1477472193.513:  -2112  83  11  845
1477472193.513:  -2099  83  11  845
1477472193.514:  -2058  83  11  845
1477472193.515:  -1996  83  11  845
1477472193.517:  -1925  83  11  845
1477472193.531:  -1858  83  11  845
1477472193.531:  -1806  83  11  845
1477472193.532:  -1768  83  11  845
1477472193.532:  -1743  83  11  845
1477472193.533:  -1729  83  11  845
1477472193.533:  -1728  83  11  845
1477472193.534:  -1740  83  11  845
1477472193.534:  -1762  83  11  845
1477472193.536:  -1780  83  11  845
1477472193.540:  -1776  83  11  845
1477472193.550:  -1736  83  11  845
1477472193.551:  -1664  83  11  845
1477472193.551:  -1575  83  11  845
1477472193.552:  -1492  83  11  845
1477472193.553:  -1438  83  11  845
1477472193.556:  -1426  83  11  845
1477472193.569:  -1452  83  11  845
1477472193.569:  -1502  83  11  845
1477472193.571:  -1551  83  11  845
1477472193.572:  -1576  83  11  845
1477472193.573:  -1561  83  11  845
1477472193.594:  -1508  83  11  845
1477472193.595:  -1436  83  11  845
1477472193.596:  -1368  83  11  845
1477472193.599:  -1324  83  11  845
1477472193.599:  -1313  83  11  845
1477472193.616:  -1331  83  11  845
1477472193.616:  -1364  83  11  845
1477472193.617:  -1395  83  11  845
1477472193.618:  -1409  83  11  845
1477472193.618:  -1405  83  11  845
1477472193.618:  -1388  83  11  845
1477472193.618:  -1365  83  11  845
1477472193.619:  -1341  83  11  845
1477472193.619:  -1322  83  11  845
1477472193.619:  -1321  83  11  845
1477472193.619:  -1343  83  11  845
1477472193.620:  -1384  83  11  845
1477472193.620:  -1422  83  11  845
1477472193.620:  -1443  83  11  845
1477472193.620:  -1447  83  11  845
1477472193.621:  -1451  83  11  845
1477472193.621:  -1469  83  11  845
1477472193.621:  -1500  83  11  845
1477472193.621:  -1532  83  11  845
1477472193.622:  -1562  83  11  845
1477472193.622:  -1600  83  11  845
1477472193.625:  -1654  83  11  845
1477472193.636:  -1718  83  11  845
1477472193.637:  -1777  83  11  845
1477472193.637:  -1819  83  11  845
1477472193.637:  -1850  83  11  845
1477472193.637:  -1881  83  11  845
1477472193.637:  -1920  83  11  845
1477472193.637:  -1969  83  11  845
1477472193.637:  -2026  83  11  845
1477472193.638:  -2096  83  11  845
1477472193.638:  -2180  83  11  845
1477472193.638:  -2271  82  10  844
1477472193.638:  -2362  82  10  844
1477472193.638:  -2449  82  10  844
1477472193.641:  -2537  82  10  844
1477472193.641:  -2625  82  10  844
1477472193.643:  -2709  82  10  844
1477472193.644:  -2781  82  10  844
1477472193.646:  -2847  82  10  844
1477472193.658:  -2919  82  10  844
1477472193.658:  -3007  82  10  844
1477472193.658:  -3105  82  10  844
1477472193.658:  -3196  82  10  844
1477472193.658:  -3265  82  10  844
1477472193.659:  -3315  82  10  844
1477472193.660:  -3355  82  10  844
1477472193.663:  -3394  82  10  844
1477472193.664:  -3432  82  10  844
1477472193.669:  -3464  82  10  844
1477472193.690:  -3485  82  10  844
1477472193.691:  -3498  82  10  844
1477472193.691:  -3504  82  10  844
1477472193.691:  -3501  82  10  844
1477472193.691:  -3487  82  10  844
1477472193.691:  -3460  82  10  844
1477472193.691:  -3419  82  10  844
1477472193.692:  -3359  82  10  844
1477472193.692:  -3277  82  10  844
1477472193.692:  -3177  82  10  844
1477472193.692:  -3071  82  10  844
1477472193.692:  -2966  82  10  844
1477472193.692:  -2865  82  10  844
1477472193.696:  -2760  82  10  844
1477472193.697:  -2645  82  10  844
1477472193.698:  -2519  82  10  844
1477472193.699:  -2382  82  10  844
1477472193.702:  -2236  82  10  844
1477472193.705:  -2085  82  10  844
1477472193.705:  -1933  82  10  844
1477472193.710:  -1780  82  10  844
1477472193.711:  -1620  82  10  844
1477472193.722:  -1449  82  10  844
1477472193.722:  -1272  82  10  844
1477472193.723:  -1097  82  10  844
1477472193.723:   -931  82  10  844
1477472193.724:   -772  82  10  844
1477472193.724:   -608  82  10  844
1477472193.724:   -438  82  10  844
1477472193.728:   -267  82  10  844
1477472193.728:   -103  82  10  844
1477472193.729:     52  82  10  844
1477472193.741:    200  82  10  844
1477472193.742:    342  82  10  844
1477472193.743:    476  82  10  844
1477472193.743:    601  82  10  844
1477472193.765:    717  82  10  844
1477472193.765:    822  82  10  844
1477472193.779:    914  82  10  844
1477472193.779:    996  82  10  844
1477472193.780:   1073  82  10  844
1477472193.780:   1153  82  10  844
1477472193.781:   1233  82  10  844
1477472193.781:   1304  82  10  844
1477472193.782:   1362  82  10  844
1477472193.782:   1413  82  10  844
1477472193.783:   1464  82  10  844
1477472193.783:   1517  82  10  844
1477472193.784:   1560  82  10  844
1477472193.784:   1588  82  10  844
1477472193.785:   1602  82  10  844
1477472193.785:   1612  82  10  844
1477472193.786:   1619  82  10  844
1477472193.786:   1618  82  10  844
1477472193.797:   1601  82  10  844
1477472193.798:   1573  82  10  844
1477472193.798:   1549  82  10  844
1477472193.798:   1534  82  10  844
1477472193.799:   1524  82  10  844
1477472193.800:   1512  82  10  844
1477472193.800:   1497  82  10  844
1477472193.800:   1485  82  10  844
1477472193.800:   1478  82  10  844
1477472193.800:   1470  82  10  844
1477472193.801:   1454  82  10  844
1477472193.801:   1435  82  10  844
1477472193.801:   1421  82  10  844
1477472193.802:   1417  82  10  844
1477472193.807:   1415  82  10  844
1477472193.807:   1408  82  10  844
1477472193.817:   1393  82  10  844
1477472193.817:   1379  82  10  844
1477472193.818:   1371  82  10  844
1477472193.818:   1362  82  10  844
1477472193.818:   1339  82  10  844
1477472193.818:   1301  82  10  844
1477472193.819:   1258  82  10  844
1477472193.823:   1225  82  10  844
1477472193.836:   1205  82  10  844
1477472193.837:   1189  82  10  844
1477472193.840:   1169  82  10  844
1477472193.840:   1144  82  10  844
1477472193.841:   1124  82  10  844
1477472193.842:   1116  82  10  844
1477472193.842:   1110  82  10  844
1477472193.843:   1093  82  10  844
1477472193.843:   1064  82  10  844
1477472193.844:   1033  82  10  844
1477472193.856:   1014  82  10  844
1477472193.856:   1005  82  10  844
1477472193.857:    992  82  10  844
1477472193.857:    968  82  10  844
1477472193.857:    942  82  10  844
1477472193.857:    930  82  10  844
1477472193.858:    930  82  10  844
1477472193.858:    927  82  10  844
1477472193.861:    904  82  10  844
1477472193.862:    865  82  10  844
1477472193.863:    832  82  10  844
1477472193.863:    819  82  10  844
1477472193.866:    817  82  10  844
1477472193.867:    809  82  10  844
1477472193.870:    786  82  10  844
1477472193.871:    759  82  10  844
1477472193.874:    740  82  10  844
1477472193.874:    731  82  10  844
1477472193.879:    714  82  10  844
1477472193.880:    675  82  10  844
1477472193.897:    616  82  10  844
1477472193.898:    558  82  10  844
1477472193.899:    521  82  10  844
1477472193.899:    511  82  10  844
1477472193.900:    512  82  10  844
1477472193.901:    509  82  10  844
1477472193.901:    498  82  10  844
1477472193.902:    481  82  10  844
1477472193.905:    458  82  10  844
1477472193.906:    429  82  10  844
1477472193.920:    393  82  10  844
1477472193.921:    357  82  10  844
1477472193.922:    332  82  10  844
1477472193.922:    324  82  10  844
1477472193.923:    332  82  10  844
1477472193.924:    350  82  10  844
1477472193.924:    374  82  10  844
1477472193.925:    398  82  10  844
1477472193.926:    417  82  10  844
1477472193.927:    422  82  10  844
1477472193.927:    411  82  10  844
1477472193.928:    397  82  10  844
1477472193.939:    388  82  10  844
1477472194.011:    391  82  10  844
1477472194.011:    400  82  10  844
1477472194.011:    412  82  10  844
1477472194.012:    425  82  10  844
1477472194.012:    444  82  10  844
1477472194.012:    464  82  10  844
1477472194.012:    476  82  10  844
1477472194.012:    470  82  10  844
1477472194.012:    447  82  10  844
1477472194.012:    425  82  10  844
1477472194.013:    420  82  10  844
1477472194.013:    434  82  10  844
1477472194.013:    458  82  10  844
1477472194.013:    480  82  10  844
1477472194.013:    490  82  10  844
1477472194.013:    489  82  10  844
1477472194.014:    481  82  10  844
1477472194.014:    470  82  10  844
1477472194.014:    461  82  10  844
1477472194.014:    458  82  10  844
1477472194.014:    462  82  10  844
1477472194.014:    469  82  10  844
1477472194.015:    475  82  10  844
1477472194.015:    476  82  10  844
1477472194.015:    472  82  10  844
1477472194.028:    464  82  10  844
1477472194.028:    455  82  10  844
1477472194.028:    443  82  10  844
1477472194.028:    428  82  10  844
1477472194.028:    411  82  10  844
1477472194.029:    397  82  10  844
1477472194.029:    389  82  10  844
1477472194.029:    386  82  10  844
1477472194.029:    381  82  10  844
1477472194.029:    372  82  10  844
1477472194.029:    361  82  10  844
1477472194.029:    357  82  10  844
1477472194.030:    366  82  10  844
1477472194.030:    382  82  10  844
1477472194.030:    397  82  10  844
1477472194.030:    404  82  10  844
1477472194.030:    405  82  10  844
1477472194.030:    404  82  10  844
1477472194.032:    401  82  10  844
1477472194.032:    391  82  10  844
1477472194.033:    373  82  10  844
1477472194.033:    354  82  10  844
1477472194.033:    348  82  10  844
1477472194.033:    361  82  10  844
1477472194.033:    385  82  10  844
1477472194.033:    406  82  10  844
1477472194.033:    414  82  10  844
1477472194.034:    412  82  10  844
1477472194.034:    409  82  10  844
1477472194.034:    409  82  10  844
1477472194.036:    408  82  10  844
1477472194.036:    402  82  10  844
1477472194.039:    400  82  10  844
1477472194.039:    410  82  10  844
1477472194.045:    433  82  10  844
1477472194.045:    456  82  10  844
1477472194.047:    464  82  10  844
1477472194.049:    452  82  10  844
1477472194.080:    426  82  10  844
1477472194.080:    396  82  10  844
1477472194.080:    364  82  10  844
1477472194.080:    327  82  10  844
1477472194.081:    290  82  10  844
1477472194.081:    267  82  10  844
1477472194.081:    268  82  10  844
1477472194.081:    293  82  10  844
1477472194.082:    320  82  10  844
1477472194.082:    329  82  10  844
1477472194.082:    317  82  10  844
1477472194.082:    299  82  10  844
1477472194.083:    291  82  10  844
1477472194.083:    294  82  10  844
1477472194.083:    295  82  10  844
1477472194.085:    287  82  10  844
1477472194.085:    275  82  10  844
1477472194.086:    272  82  10  844
1477472194.107:    279  82  10  844
1477472194.107:    287  82  10  844
1477472194.107:    289  82  10  844
1477472194.108:    286  82  10  844
1477472194.108:    287  82  10  844
1477472194.108:    291  82  10  844
1477472194.108:    298  82  10  844
1477472194.108:    303  82  10  844
1477472194.108:    309  82  10  844
1477472194.108:    317  82  10  844
1477472194.109:    324  82  10  844
1477472194.109:    326  82  10  844
1477472194.109:    328  82  10  844
1477472194.110:    328  82  10  844
1477472194.112:    324  82  10  844
1477472194.114:    310  82  10  844
1477472194.116:    288  82  10  844
1477472194.121:    269  82  10  844
1477472194.121:    262  82  10  844
1477472194.124:    261  82  10  844
1477472194.125:    257  82  10  844
1477472194.127:    250  82  10  844
1477472194.134:    255  82  10  844
1477472194.134:    281  82  10  844
1477472194.135:    322  82  10  844
1477472194.135:    358  82  10  844
1477472194.136:    371  82  10  844
1477472194.140:    363  82  10  844
1477472194.141:    349  82  10  844
1477472194.144:    345  82  10  844
1477472194.144:    348  82  10  844
1477472194.149:    350  82  10  844
1477472194.149:    342  82  10  844
1477472194.150:    331  82  10  844
1477472194.151:    325  82  10  844
1477472194.153:    331  82  10  844
1477472194.163:    340  82  10  844
1477472194.163:    340  82  10  844
1477472194.164:    325  82  10  844
1477472194.167:    302  82  10  844
1477472194.167:    288  82  10  844
1477472194.168:    296  82  10  844
1477472194.168:    321  82  10  844
1477472194.169:    348  82  10  844
1477472194.171:    359  82  10  844
1477472194.176:    351  82  10  844
1477472194.182:    334  82  10  844
1477472194.183:    316  82  10  844
1477472194.183:    297  82  10  844
1477472194.187:    268  82  10  844
1477472194.187:    227  82  10  844
1477472194.187:    186  82  10  844
1477472194.192:    159  82  10  844
1477472194.192:    156  82  10  844
1477472194.192:    170  82  10  844
1477472194.192:    188  82  10  844
1477472194.194:    198  82  10  844
1477472194.196:    200  82  10  844
1477472194.199:    193  82  10  844
1477472194.203:    181  82  10  844
1477472194.210:    164  82  10  844
1477472194.210:    150  82  10  844
1477472194.210:    145  82  10  844
1477472194.210:    152  82  10  844
1477472194.211:    166  82  10  844
1477472194.214:    177  82  10  844
1477472194.218:    174  82  10  844
1477472194.218:    160  82  10  844
1477472194.219:    145  82  10  844
1477472194.220:    138  82  10  844
1477472194.231:    139  82  10  844
1477472194.231:    136  82  10  844
1477472194.231:    123  82  10  844
1477472194.232:    107  82  10  844
1477472194.232:    102  82  10  844
1477472194.233:    114  82  10  844
1477472194.235:    129  82  10  844
1477472194.236:    130  82  10  844
1477472194.238:    109  82  10  844
1477472194.239:     76  82  10  844
1477472194.250:     46  82  10  844
1477472194.251:     25  82  10  844
1477472194.252:      9  82  10  844
1477472194.252:    -10  82  10  844
1477472194.252:    -23  82  10  844
1477472194.253:    -26  82  10  844
1477472194.255:    -16  82  10  844
1477472194.255:      3  82  10  844
1477472194.258:     27  82  10  844
1477472194.259:     59  82  10  844
1477472194.263:    104  82  10  844
1477472194.264:    160  82  10  844
1477472194.277:    210  82  10  844
1477472194.278:    235  82  10  844
1477472194.279:    230  82  10  844
1477472194.280:    213  82  10  844
1477472194.280:    206  82  10  844
1477472194.281:    203  82  10  844
1477472194.282:    165  82  10  844
1477472194.283:     64  82  10  844
1477472194.283:    -73  82  10  844
1477472194.284:   -163  82  10  844
1477472194.286:   -145  82  10  844
1477472194.287:    -34  82  10  844
1477472194.298:    105  82  10  844
1477472194.298:    261  82  10  844
1477472194.298:    510  82  10  844
1477472194.299:    950  82  10  844
1477472194.299:   1598  82  10  844
1477472194.299:   2368  82  10  844
1477472194.301:   3147  82  10  844
1477472194.305:   3876  82  10  844
1477472194.305:   4556  82  10  844
1477472194.308:   5203  82  10  844
1477472194.318:   5808  82  10  844
1477472194.319:   6342  82  10  844
1477472194.319:   6777  82  10  844
1477472194.319:   7092  82  10  844
1477472194.319:   7277  82  10  844
1477472194.319:   7336  82  10  844
1477472194.320:   7293  82  10  844
1477472194.322:   7172  82  10  844
1477472194.326:   6991  82  10  844
1477472194.327:   6755  82  10  844
1477472194.333:   6468  82  10  844
1477472194.333:   6147  82  10  844
1477472194.365:   5825  82  10  844
1477472194.365:   5544  82  10  844
1477472194.366:   5325  82  10  844
1477472194.367:   5145  82  10  844
1477472194.367:   4948  82  10  844
1477472194.367:   4691  82  10  844
1477472194.368:   4390  84  11  828
1477472194.368:   4089  84  11  828
1477472194.368:   3784  84  11  828
1477472194.369:   3408  84  11  828
1477472194.369:   2897  84  11  828
1477472194.369:   2286  84  11  828
1477472194.370:   1695  84  11  828
1477472194.370:   1210  84  11  828
1477472194.370:    808  84  11  828
1477472194.370:    405  84  11  828
1477472194.371:    -26  84  11  828
1477472194.371:   -424  84  11  828
1477472194.371:   -715  84  11  828
1477472194.371:   -896  84  11  828
1477472194.374:  -1028  84  11  828
1477472194.374:  -1162  84  11  828
1477472194.375:  -1291  84  11  828
1477472194.379:  -1387  84  11  828
1477472194.380:  -1449  84  11  828
1477472194.380:  -1499  84  11  828
1477472194.388:  -1552  84  11  828
1477472194.388:  -1592  84  11  828
1477472194.389:  -1596  84  11  828
1477472194.390:  -1565  84  11  828
1477472194.391:  -1536  84  11  828
1477472194.393:  -1550  84  11  828
1477472194.407:  -1619  84  11  828
1477472194.407:  -1715  84  11  828
1477472194.408:  -1797  84  11  828
1477472194.408:  -1840  84  11  828
1477472194.408:  -1846  84  11  828
1477472194.408:  -1829  84  11  828
1477472194.408:  -1793  84  11  828
1477472194.408:  -1741  84  11  828
1477472194.415:  -1683  84  11  828
1477472194.415:  -1639  84  11  828
1477472194.416:  -1624  84  11  828
1477472194.418:  -1635  84  11  828
1477472194.420:  -1662  84  11  828
1477472194.421:  -1693  84  11  828
1477472194.429:  -1721  84  11  828
1477472194.433:  -1731  84  11  828
1477472194.433:  -1712  84  11  828
1477472194.433:  -1664  84  11  828
1477472194.434:  -1605  84  11  828
1477472194.435:  -1556  84  11  828
1477472194.437:  -1525  84  11  828
1477472194.443:  -1505  84  11  828
1477472194.448:  -1494  84  11  828
1477472194.448:  -1497  84  11  828
1477472194.449:  -1513  84  11  828
1477472194.449:  -1529  84  11  828
1477472194.449:  -1531  84  11  828
1477472194.449:  -1515  84  11  828
1477472194.449:  -1490  84  11  828
1477472194.457:  -1464  84  11  828
1477472194.457:  -1436  84  11  828
1477472194.457:  -1404  84  11  828
1477472194.458:  -1377  84  11  828
1477472194.461:  -1367  84  11  828
1477472194.468:  -1367  84  11  828
1477472194.468:  -1359  84  11  828
1477472194.469:  -1332  84  11  828
1477472194.471:  -1302  84  11  828
1477472194.472:  -1292  84  11  828
1477472194.475:  -1306  84  11  828
1477472194.476:  -1321  84  11  828
1477472194.477:  -1313  84  11  828
1477472194.489:  -1287  84  11  828
1477472194.489:  -1264  84  11  828
1477472194.489:  -1256  84  11  828
1477472194.490:  -1255  84  11  828
1477472194.490:  -1250  84  11  828
1477472194.490:  -1252  84  11  828
1477472194.491:  -1279  84  11  828
1477472194.494:  -1331  84  11  828
1477472194.494:  -1382  84  11  828
1477472194.498:  -1403  84  11  828
1477472194.499:  -1394  84  11  828
1477472194.502:  -1379  84  11  828
1477472194.502:  -1381  84  11  828
1477472194.503:  -1401  84  11  828
1477472194.507:  -1430  84  11  828
1477472194.510:  -1468  84  11  828
1477472194.511:  -1525  84  11  828
1477472194.512:  -1602  84  11  828
1477472194.514:  -1691  84  11  828
1477472194.516:  -1773  84  11  828
1477472194.520:  -1839  84  11  828
1477472194.521:  -1887  84  11  828
1477472194.535:  -1918  84  11  828
1477472194.537:  -1938  84  11  828
1477472194.538:  -1959  84  11  828
1477472194.538:  -1997  84  11  828
1477472194.539:  -2065  84  11  828
1477472194.540:  -2160  84  11  828
1477472194.541:  -2271  84  11  828
1477472194.541:  -2379  84  11  828
1477472194.542:  -2472  84  11  828
1477472194.543:  -2545  84  11  828
1477472194.544:  -2600  84  11  828
1477472194.545:  -2645  84  11  828
1477472194.555:  -2686  84  11  828
1477472194.556:  -2731  84  11  828
1477472194.556:  -2784  84  11  828
1477472194.556:  -2846  84  11  828
1477472194.556:  -2916  84  11  828
1477472194.558:  -2983  84  11  828
1477472194.558:  -3034  84  11  828
1477472194.559:  -3064  84  11  828
1477472194.561:  -3080  84  11  828
1477472194.562:  -3093  84  11  828
1477472194.564:  -3106  84  11  828
1477472194.599:  -3111  84  11  828
1477472194.599:  -3105  84  11  828
1477472194.600:  -3088  84  11  828
1477472194.600:  -3070  84  11  828
1477472194.600:  -3051  84  11  828
1477472194.600:  -3026  84  11  828
1477472194.601:  -2991  84  11  828
1477472194.602:  -2945  84  11  828
1477472194.603:  -2889  84  11  828
1477472194.622:  -2821  84  11  828
1477472194.622:  -2736  84  11  828
1477472194.623:  -2634  84  11  828
1477472194.623:  -2516  84  11  828
1477472194.623:  -2389  84  11  828
1477472194.623:  -2261  84  11  828
1477472194.623:  -2140  84  11  828
1477472194.624:  -2028  84  11  828
1477472194.624:  -1921  84  11  828
1477472194.624:  -1808  84  11  828
1477472194.624:  -1682  84  11  828
1477472194.625:  -1540  84  11  828
1477472194.625:  -1378  84  11  828
1477472194.625:  -1193  84  11  828
1477472194.626:   -994  84  11  828
1477472194.626:   -800  84  11  828
1477472194.626:   -628  84  11  828
1477472194.626:   -481  84  11  828
1477472194.627:   -343  84  11  828
1477472194.627:   -204  84  11  828
1477472194.627:    -65  84  11  828
1477472194.627:     70  84  11  828
1477472194.630:    208  84  11  828
1477472194.630:    365  84  11  828
1477472194.637:    545  84  11  828
1477472194.637:    730  84  11  828
1477472194.649:    890  84  11  828
1477472194.649:   1005  84  11  828
1477472194.649:   1082  84  11  828
1477472194.649:   1138  84  11  828
1477472194.649:   1189  84  11  828
1477472194.650:   1243  84  11  828
1477472194.650:   1303  84  11  828
1477472194.650:   1370  84  11  828
1477472194.650:   1445  84  11  828
1477472194.652:   1520  84  11  828
1477472194.654:   1587  84  11  828
1477472194.658:   1634  84  11  828
1477472194.663:   1658  84  11  828
1477472194.663:   1664  84  11  828
1477472194.663:   1664  84  11  828
1477472194.664:   1670  84  11  828
1477472194.674:   1683  84  11  828
1477472194.760:   1696  84  11  828
1477472194.777:   1703  84  11  828
1477472194.777:   1702  84  11  828
1477472194.777:   1694  84  11  828
1477472194.778:   1681  84  11  828
1477472194.778:   1663  84  11  828
1477472194.778:   1642  84  11  828
1477472194.778:   1617  84  11  828
1477472194.778:   1595  84  11  828
1477472194.778:   1576  84  11  828
1477472194.779:   1563  84  11  828
1477472194.779:   1548  84  11  828
1477472194.779:   1522  84  11  828
1477472194.779:   1484  84  11  828
1477472194.779:   1443  84  11  828
1477472194.779:   1416  84  11  828
1477472194.780:   1409  84  11  828
1477472194.780:   1411  84  11  828
1477472194.780:   1403  84  11  828
1477472194.780:   1374  84  11  828
1477472194.780:   1330  84  11  828
1477472194.780:   1285  84  11  828
1477472194.780:   1243  84  11  828
1477472194.781:   1201  84  11  828
1477472194.781:   1156  84  11  828
1477472194.781:   1110  84  11  828
1477472194.781:   1072  84  11  828
1477472194.781:   1046  84  11  828
1477472194.781:   1031  84  11  828
1477472194.781:   1023  84  11  828
1477472194.782:   1011  84  11  828
1477472194.782:    985  84  11  828
1477472194.782:    940  84  11  828
1477472194.782:    882  84  11  828
1477472194.782:    826  84  11  828
1477472194.782:    788  84  11  828
1477472194.782:    771  84  11  828
1477472194.783:    767  84  11  828
1477472194.783:    765  84  11  828
1477472194.783:    757  84  11  828
1477472194.783:    739  84  11  828
1477472194.784:    712  84  11  828
1477472194.784:    682  84  11  828
1477472194.784:    654  84  11  828
1477472194.784:    630  84  11  828
1477472194.784:    610  84  11  828
1477472194.785:    593  84  11  828
1477472194.785:    580  84  11  828
1477472194.785:    570  84  11  828
1477472194.785:    561  84  11  828
1477472194.785:    549  84  11  828
1477472194.785:    537  84  11  828
1477472194.785:    527  84  11  828
1477472194.786:    517  84  11  828
1477472194.786:    500  84  11  828
1477472194.786:    473  84  11  828
1477472194.786:    442  84  11  828
1477472194.786:    418  84  11  828
1477472194.786:    400  84  11  828
1477472194.787:    383  84  11  828
1477472194.787:    366  84  11  828
1477472194.790:    369  84  11  828
1477472194.791:    405  84  11  828
1477472194.797:    460  84  11  828
1477472194.797:    494  84  11  828
1477472194.800:    479  84  11  828
1477472194.801:    425  84  11  828
1477472194.812:    372  84  11  828
1477472194.812:    350  84  11  828
1477472194.812:    357  84  11  828
1477472194.813:    371  84  11  828
1477472194.813:    379  84  11  828
1477472194.813:    391  84  11  828
1477472194.813:    422  84  11  828
1477472194.814:    467  84  11  828
1477472194.815:    508  84  11  828
1477472194.819:    527  84  11  828
1477472194.834:    519  84  11  828
1477472194.834:    496  84  11  828
1477472194.835:    469  84  11  828
1477472194.835:    449  84  11  828
1477472194.835:    442  84  11  828
1477472194.835:    453  84  11  828
1477472194.835:    481  84  11  828
1477472194.835:    518  84  11  828
1477472194.835:    550  84  11  828
1477472194.840:    563  84  11  828
1477472194.840:    550  84  11  828
1477472194.842:    518  84  11  828
1477472194.843:    483  84  11  828
1477472194.844:    461  84  11  828
1477472194.847:    457  84  11  828
1477472194.851:    461  84  11  828
1477472194.854:    459  84  11  828
1477472194.854:    443  84  11  828
1477472194.869:    421  84  11  828
1477472194.870:    405  84  11  828
1477472194.871:    404  84  11  828
1477472194.871:    413  84  11  828
1477472194.872:    427  84  11  828
1477472194.872:    438  84  11  828
1477472194.872:    439  84  11  828
1477472194.872:    428  84  11  828
1477472194.872:    406  84  11  828
1477472194.873:    381  84  11  828
1477472194.877:    364  84  11  828
1477472194.879:    362  84  11  828
1477472194.890:    378  84  11  828
1477472194.890:    403  84  11  828
1477472194.890:    424  84  11  828
1477472194.890:    435  84  11  828
1477472194.890:    432  84  11  828
1477472194.891:    421  84  11  828
1477472194.894:    407  84  11  828
1477472194.895:    390  84  11  828
1477472194.895:    366  84  11  828
1477472194.897:    337  84  11  828
1477472194.900:    312  84  11  828
1477472194.900:    306  84  11  828
1477472194.901:    319  84  11  828
1477472194.904:    339  84  11  828
1477472194.915:    347  84  11  828
1477472194.915:    336  84  11  828
1477472194.915:    310  84  11  828
1477472194.916:    282  84  11  828
1477472194.916:    255  84  11  828
1477472194.916:    229  84  11  828
1477472194.918:    210  84  11  828
1477472194.923:    208  84  11  828
1477472194.923:    227  84  11  828
1477472194.924:    257  84  11  828
1477472194.926:    278  84  11  828
1477472194.927:    281  84  11  828
1477472194.930:    269  84  11  828
1477472194.932:    256  84  11  828
1477472194.936:    250  84  11  828
1477472194.936:    250  84  11  828
1477472194.938:    255  84  11  828
1477472194.942:    265  84  11  828
1477472194.943:    281  84  11  828
1477472194.944:    301  84  11  828
1477472194.957:    316  84  11  828
1477472194.957:    320  84  11  828
1477472194.957:    315  84  11  828
1477472194.958:    311  84  11  828
1477472194.958:    316  84  11  828
1477472194.958:    322  84  11  828
1477472194.958:    309  84  11  828
1477472194.959:    263  84  11  828
1477472194.962:    201  84  11  828
1477472194.963:    162  84  11  828
1477472194.966:    180  84  11  828
1477472194.969:    247  84  11  828
1477472194.969:    321  84  11  828
1477472194.970:    369  84  11  828
1477472194.973:    389  84  11  828
1477472194.974:    406  84  11  828
1477472194.977:    424  84  11  828
1477472194.978:    419  84  11  828
1477472194.994:    372  84  11  828
1477472194.995:    300  84  11  828
1477472194.995:    246  84  11  828
1477472194.995:    237  84  11  828
1477472194.996:    266  84  11  828
1477472194.997:    301  84  11  828
1477472194.997:    325  84  11  828
1477472194.997:    343  84  11  828
1477472194.998:    365  84  11  828
1477472194.999:    381  84  11  828
1477472195.000:    372  84  11  828
1477472195.001:    333  84  11  828
1477472195.004:    287  84  11  828
1477472195.005:    259  84  11  828
1477472195.016:    256  84  11  828
1477472195.017:    268  84  11  828
1477472195.017:    279  84  11  828
1477472195.017:    281  84  11  828
1477472195.018:    274  84  11  828
1477472195.018:    258  84  11  828
1477472195.044:    230  84  11  828
1477472195.045:    195  84  11  828
1477472195.050:    169  84  11  828
1477472195.050:    164  84  11  828
1477472195.050:    176  84  11  828
1477472195.050:    192  84  11  828
1477472195.050:    195  84  11  828
1477472195.051:    182  84  11  828
1477472195.052:    160  84  11  828
1477472195.052:    138  84  11  828
1477472195.052:    122  84  11  828
1477472195.053:    114  84  11  828
1477472195.053:    112  84  11  828
1477472195.053:    111  84  11  828
1477472195.054:    102  84  11  828
1477472195.054:     81  84  11  828
1477472195.054:     52  84  11  828
1477472195.054:     23  84  11  828
1477472195.055:      5  84  11  828
1477472195.057:      3  84  11  828
1477472195.069:     15  84  11  828
1477472195.069:     33  84  11  828
1477472195.069:     47  84  11  828
1477472195.069:     51  84  11  828
1477472195.070:     39  84  11  828
1477472195.070:     15  84  11  828
1477472195.070:    -17  84  11  828
1477472195.071:    -50  84  11  828
1477472195.074:    -82  84  11  828
1477472195.079:   -104  84  11  828
1477472195.087:   -110  84  11  828
1477472195.088:    -90  84  11  828
1477472195.088:    -47  84  11  828
1477472195.088:      1  84  11  828
1477472195.088:     30  84  11  828
1477472195.088:     28  84  11  828
1477472195.092:      5  84  11  828
1477472195.092:    -19  84  11  828
1477472195.094:    -33  84  11  828
1477472195.095:    -39  84  11  828
1477472195.098:    -42  84  11  828
1477472195.100:    -38  84  11  828
1477472195.115:    -15  84  11  828
1477472195.116:     18  84  11  828
1477472195.116:     40  84  11  828
1477472195.116:     36  84  11  828
1477472195.116:     10  84  11  828
1477472195.116:    -16  84  11  828
1477472195.117:    -33  84  11  828
1477472195.117:    -40  84  11  828
1477472195.119:    -43  84  11  828
1477472195.120:    -45  84  11  828
1477472195.122:    -46  84  11  828
1477472195.124:    -50  84  11  828
1477472195.125:    -59  84  11  828
1477472195.128:    -74  84  11  828
1477472195.131:   -110  84  11  828
1477472195.134:   -188  84  11  828
1477472195.134:   -307  84  11  828
1477472195.135:   -424  84  11  828
1477472195.148:   -488  84  11  828
1477472195.148:   -479  84  11  828
1477472195.148:   -413  84  11  828
1477472195.150:   -284  84  11  828
1477472195.150:    -28  84  11  828
1477472195.150:    436  84  11  828
1477472195.150:   1117  84  11  828
1477472195.153:   1928  84  11  828
1477472195.156:   2754  84  11  828
1477472195.156:   3528  84  11  828
1477472195.158:   4252  84  11  828
1477472195.159:   4947  84  11  828
1477472195.174:   5609  84  11  828
1477472195.174:   6210  84  11  828
1477472195.174:   6716  84  11  828
1477472195.174:   7097  84  11  828
1477472195.174:   7333  84  11  828
1477472195.175:   7419  84  11  828
1477472195.176:   7376  84  11  828
1477472195.176:   7239  84  11  828
1477472195.178:   7032  84  11  828
1477472195.182:   6758  84  11  828
1477472195.182:   6420  84  11  828
1477472195.183:   6047  84  11  828
1477472195.190:   5694  84  11  828
1477472195.190:   5421  84  11  828
1477472195.190:   5243  84  11  828
1477472195.190:   5117  84  11  828
1477472195.194:   4960  84  11  828
1477472195.195:   4710  84  11  828
1477472195.197:   4381  84  11  828
1477472195.198:   4027  84  11  828
1477472195.202:   3667  84  11  828
1477472195.203:   3250  84  11  828
1477472195.209:   2716  84  11  828
1477472195.209:   2090  84  11  828
1477472195.235:   1479  84  11  828
1477472195.236:    968  84  11  828
1477472195.236:    535  84  11  828
1477472195.236:     97  84  11  828
1477472195.237:   -375  84  11  828
1477472195.243:   -813  84  11  828
1477472195.243:  -1134  84  11  828
1477472195.243:  -1326  84  11  828
1477472195.244:  -1457  84  11  828
1477472195.244:  -1585  84  11  828
1477472195.244:  -1712  84  11  828
1477472195.245:  -1812  84  11  828
1477472195.245:  -1880  84  11  828
1477472195.245:  -1942  84  11  828
1477472195.258:  -2008  84  11  828
1477472195.259:  -2065  85  11  838
1477472195.259:  -2096  85  11  838
1477472195.259:  -2105  85  11  838
1477472195.259:  -2109  85  11  838
1477472195.259:  -2126  85  11  838
1477472195.260:  -2159  85  11  838
1477472195.260:  -2204  85  11  838
1477472195.260:  -2250  85  11  838
1477472195.260:  -2280  85  11  838
1477472195.260:  -2274  85  11  838
1477472195.260:  -2227  85  11  838
1477472195.263:  -2155  85  11  838
1477472195.264:  -2083  85  11  838
1477472195.265:  -2023  85  11  838
1477472195.267:  -1980  85  11  838
1477472195.270:  -1957  85  11  838
1477472195.270:  -1956  85  11  838
1477472195.272:  -1973  85  11  838
1477472195.273:  -1989  85  11  838
1477472195.284:  -1988  85  11  838
1477472195.284:  -1965  85  11  838
1477472195.284:  -1924  85  11  838
1477472195.285:  -1872  85  11  838
1477472195.285:  -1811  85  11  838
1477472195.285:  -1750  85  11  838
1477472195.287:  -1713  85  11  838
1477472195.288:  -1714  85  11  838
1477472195.293:  -1747  85  11  838
1477472195.294:  -1782  85  11  838
1477472195.297:  -1793  85  11  838
1477472195.298:  -1772  85  11  838
1477472195.299:  -1735  85  11  838
1477472195.305:  -1696  85  11  838
1477472195.305:  -1655  85  11  838
1477472195.306:  -1612  85  11  838
1477472195.308:  -1575  85  11  838
1477472195.309:  -1560  85  11  838
1477472195.310:  -1575  85  11  838
1477472195.312:  -1605  85  11  838
1477472195.317:  -1627  85  11  838
1477472195.317:  -1624  85  11  838
1477472195.333:  -1606  85  11  838
1477472195.333:  -1587  85  11  838
1477472195.333:  -1569  85  11  838
1477472195.334:  -1543  85  11  838
1477472195.334:  -1510  85  11  838
1477472195.334:  -1484  85  11  838
1477472195.335:  -1482  85  11  838
1477472195.335:  -1503  85  11  838
1477472195.335:  -1528  85  11  838
1477472195.339:  -1538  85  11  838
1477472195.339:  -1537  85  11  838
1477472195.340:  -1539  85  11  838
1477472195.342:  -1555  85  11  838
1477472195.345:  -1576  85  11  838
1477472195.359:  -1591  85  11  838
1477472195.360:  -1602  85  11  838
1477472195.360:  -1621  85  11  838
1477472195.360:  -1657  85  11  838
1477472195.360:  -1706  85  11  838
1477472195.361:  -1757  85  11  838
1477472195.361:  -1809  85  11  838
1477472195.361:  -1868  85  11  838
1477472195.363:  -1930  85  11  838
1477472195.368:  -1987  85  11  838
1477472195.369:  -2030  85  11  838
1477472195.371:  -2065  85  11  838
1477472195.382:  -2098  85  11  838
1477472195.382:  -2130  85  11  838
1477472195.382:  -2160  85  11  838
1477472195.382:  -2201  85  11  838
1477472195.383:  -2284  85  11  838
1477472195.383:  -2424  85  11  838
1477472195.383:  -2594  85  11  838
1477472195.383:  -2741  85  11  838
1477472195.384:  -2829  85  11  838
1477472195.387:  -2861  85  11  838
1477472195.389:  -2870  85  11  838
1477472195.394:  -2888  85  11  838
1477472195.394:  -2923  85  11  838
1477472195.396:  -2974  85  11  838
1477472195.397:  -3042  85  11  838
1477472195.398:  -3129  85  11  838
1477472195.400:  -3233  85  11  838
1477472195.403:  -3343  85  11  838
1477472195.407:  -3445  85  11  838
1477472195.408:  -3530  85  11  838
1477472195.411:  -3585  85  11  838
1477472195.412:  -3608  85  11  838
1477472195.426:  -3603  85  11  838
1477472195.426:  -3588  85  11  838
1477472195.427:  -3580  85  11  838
1477472195.427:  -3583  85  11  838
1477472195.427:  -3592  85  11  838
1477472195.427:  -3595  85  11  838
1477472195.427:  -3585  85  11  838
1477472195.427:  -3557  85  11  838
1477472195.428:  -3507  85  11  838
1477472195.431:  -3434  85  11  838
1477472195.435:  -3343  85  11  838
1477472195.435:  -3246  85  11  838
1477472195.437:  -3156  85  11  838
1477472195.438:  -3074  85  11  838
1477472195.450:  -2993  85  11  838
1477472195.450:  -2897  85  11  838
1477472195.450:  -2777  85  11  838
1477472195.454:  -2637  85  11  838
1477472195.454:  -2483  85  11  838
1477472195.455:  -2324  85  11  838
1477472195.457:  -2166  85  11  838
1477472195.463:  -2018  85  11  838
1477472195.464:  -1882  85  11  838
1477472195.464:  -1749  85  11  838
1477472195.466:  -1604  85  11  838
1477472195.466:  -1434  85  11  838
1477472195.468:  -1243  85  11  838
1477472195.470:  -1047  85  11  838
1477472195.474:   -861  85  11  838
1477472195.474:   -687  85  11  838
1477472195.476:   -518  85  11  838
1477472195.478:   -355  85  11  838
1477472195.495:   -199  85  11  838
1477472195.496:    -52  85  11  838
1477472195.496:     87  85  11  838
1477472195.496:    219  85  11  838
1477472195.496:    346  85  11  838
1477472195.496:    470  85  11  838
1477472195.497:    594  85  11  838
1477472195.500:    716  85  11  838
1477472195.507:    827  85  11  838
1477472195.507:    923  85  11  838
1477472195.510:   1001  85  11  838
1477472195.510:   1071  85  11  838
1477472195.510:   1139  85  11  838
1477472195.512:   1209  85  11  838
1477472195.513:   1277  85  11  838
1477472195.514:   1343  85  11  838
1477472195.516:   1403  85  11  838
1477472195.516:   1451  85  11  838
1477472195.519:   1486  85  11  838
1477472195.519:   1510  85  11  838
1477472195.534:   1527  85  11  838
1477472195.534:   1541  85  11  838
1477472195.534:   1550  85  11  838
1477472195.534:   1555  85  11  838
1477472195.534:   1560  85  11  838
1477472195.535:   1573  85  11  838
1477472195.535:   1594  85  11  838
1477472195.535:   1613  85  11  838
1477472195.535:   1618  85  11  838
1477472195.535:   1605  85  11  838
1477472195.535:   1580  85  11  838
1477472195.537:   1554  85  11  838
1477472195.541:   1530  85  11  838
1477472195.541:   1508  85  11  838
1477472195.541:   1488  85  11  838
1477472195.545:   1470  85  11  838
1477472195.546:   1453  85  11  838
1477472195.550:   1434  85  11  838
1477472195.550:   1409  85  11  838
1477472195.551:   1380  85  11  838
1477472195.555:   1345  85  11  838
1477472195.557:   1309  85  11  838
1477472195.559:   1272  85  11  838
1477472195.562:   1234  85  11  838
1477472195.628:   1197  85  11  838
1477472195.631:   1162  85  11  838
1477472195.631:   1132  85  11  838
1477472195.631:   1109  85  11  838
1477472195.631:   1092  85  11  838
1477472195.632:   1073  85  11  838
1477472195.632:   1043  85  11  838
1477472195.632:   1004  85  11  838
1477472195.632:    971  85  11  838
1477472195.632:    956  85  11  838
1477472195.632:    957  85  11  838
1477472195.633:    954  85  11  838
1477472195.633:    934  85  11  838
1477472195.633:    898  85  11  838
1477472195.634:    858  85  11  838
1477472195.634:    820  85  11  838
1477472195.634:    782  85  11  838
1477472195.634:    741  85  11  838
1477472195.634:    700  85  11  838
1477472195.635:    668  85  11  838
1477472195.635:    652  85  11  838
1477472195.635:    653  85  11  838
1477472195.635:    663  85  11  838
1477472195.635:    673  85  11  838
1477472195.635:    674  85  11  838
1477472195.635:    664  85  11  838
1477472195.635:    647  85  11  838
1477472195.636:    633  85  11  838
1477472195.636:    626  85  11  838
1477472195.636:    622  85  11  838
1477472195.636:    620  85  11  838
1477472195.637:    624  85  11  838
1477472195.638:    639  85  11  838
1477472195.638:    658  85  11  838
1477472195.638:    666  85  11  838
1477472195.638:    656  85  11  838
1477472195.638:    632  85  11  838
1477472195.638:    608  85  11  838
1477472195.639:    593  85  11  838
1477472195.639:    587  85  11  838
1477472195.641:    586  85  11  838
1477472195.643:    591  85  11  838
1477472195.658:    597  85  11  838
1477472195.658:    598  85  11  838
1477472195.659:    587  85  11  838
1477472195.659:    569  85  11  838
1477472195.659:    551  85  11  838
1477472195.659:    535  85  11  838
1477472195.659:    516  85  11  838
1477472195.663:    492  85  11  838
1477472195.663:    472  85  11  838
1477472195.665:    467  85  11  838
1477472195.666:    476  85  11  838
1477472195.666:    486  85  11  838
1477472195.669:    482  85  11  838
1477472195.673:    462  85  11  838
1477472195.684:    435  85  11  838
1477472195.684:    410  85  11  838
1477472195.685:    387  85  11  838
1477472195.685:    363  85  11  838
1477472195.685:    343  85  11  838
1477472195.685:    331  85  11  838
1477472195.689:    332  85  11  838
1477472195.689:    341  85  11  838
1477472195.689:    344  85  11  838
1477472195.691:    333  85  11  838
1477472195.691:    310  85  11  838
1477472195.694:    287  85  11  838
1477472195.697:    274  85  11  838
1477472195.698:    267  85  11  838
1477472195.701:    257  85  11  838
1477472195.702:    242  85  11  838
1477472195.703:    232  85  11  838
1477472195.706:    234  85  11  838
1477472195.730:    239  85  11  838
1477472195.730:    234  85  11  838
1477472195.730:    216  85  11  838
1477472195.731:    196  85  11  838
1477472195.731:    185  85  11  838
1477472195.731:    180  85  11  838
1477472195.731:    166  85  11  838
1477472195.731:    142  85  11  838
1477472195.732:    121  85  11  838
1477472195.732:    116  85  11  838
1477472195.732:    120  85  11  838
1477472195.733:    118  85  11  838
1477472195.733:     99  85  11  838
1477472195.733:     72  85  11  838
1477472195.735:     57  85  11  838
1477472195.736:     59  85  11  838
1477472195.742:     73  85  11  838
1477472195.743:     87  85  11  838
1477472195.743:     99  85  11  838
1477472195.744:    111  85  11  838
1477472195.747:    123  85  11  838
1477472195.748:    129  85  11  838
1477472195.759:    122  85  11  838
1477472195.759:    104  85  11  838
1477472195.759:     85  85  11  838
1477472195.759:     76  85  11  838
1477472195.760:     82  85  11  838
1477472195.761:    101  85  11  838
1477472195.765:    124  85  11  838
1477472195.765:    147  85  11  838
1477472195.765:    167  85  11  838
1477472195.768:    180  85  11  838
1477472195.770:    187  85  11  838
1477472195.775:    181  85  11  838
1477472195.775:    162  85  11  838
1477472195.777:    135  85  11  838
1477472195.779:    110  85  11  838
1477472195.780:    100  85  11  838
1477472195.782:    107  85  11  838
1477472195.783:    127  85  11  838
1477472195.807:    146  85  11  838
1477472195.808:    157  85  11  838
1477472195.809:    162  85  11  838
1477472195.809:    164  85  11  838
1477472195.810:    169  85  11  838
1477472195.813:    175  85  11  838
1477472195.813:    184  85  11  838
1477472195.814:    199  85  11  838
1477472195.816:    223  85  11  838
1477472195.816:    251  85  11  838
1477472195.817:    272  85  11  838
1477472195.817:    274  85  11  838
1477472195.829:    258  85  11  838
1477472195.830:    236  85  11  838
1477472195.830:    221  85  11  838
1477472195.830:    217  85  11  838
1477472195.830:    214  85  11  838
1477472195.831:    208  85  11  838
1477472195.831:    202  85  11  838
1477472195.831:    202  85  11  838
1477472195.831:    211  85  11  838
1477472195.831:    217  85  11  838
1477472195.832:    207  85  11  838
1477472195.832:    180  85  11  838
1477472195.833:    145  85  11  838
1477472195.846:    116  85  11  838
1477472195.848:     99  85  11  838
1477472195.849:     87  85  11  838
1477472195.850:     76  85  11  838
1477472195.850:     66  85  11  838
1477472195.852:     62  85  11  838
1477472195.852:     60  85  11  838
1477472195.854:     52  85  11  838
1477472195.855:     31  85  11  838
1477472195.857:      0  85  11  838
1477472195.879:    -29  85  11  838
1477472195.880:    -46  85  11  838
1477472195.882:    -49  85  11  838
1477472195.886:    -44  85  11  838
1477472195.887:    -38  85  11  838
1477472195.897:    -34  85  11  838
1477472195.897:    -31  85  11  838
1477472195.897:    -27  85  11  838
1477472195.897:    -22  85  11  838
1477472195.897:    -19  85  11  838
1477472195.898:    -17  85  11  838
1477472195.898:    -16  85  11  838
1477472195.898:    -17  85  11  838
1477472195.898:    -21  85  11  838
1477472195.898:    -27  85  11  838
1477472195.899:    -29  85  11  838
1477472195.899:    -29  85  11  838
1477472195.899:    -29  85  11  838
1477472195.899:    -32  85  11  838
1477472195.899:    -35  85  11  838
1477472195.900:    -34  85  11  838
1477472195.900:    -32  85  11  838
1477472195.900:    -36  85  11  838
1477472195.902:    -50  85  11  838
1477472195.903:    -66  85  11  838
1477472195.907:    -70  85  11  838
1477472195.909:    -56  85  11  838
1477472195.909:    -35  85  11  838
1477472195.910:    -20  85  11  838
1477472195.911:    -15  85  11  838
1477472195.913:    -13  85  11  838
1477472195.916:     -9  85  11  838
1477472195.920:     -7  85  11  838
1477472195.920:    -15  85  11  838
1477472195.922:    -28  85  11  838
1477472195.923:    -35  85  11  838
1477472195.924:    -29  85  11  838
1477472195.936:    -15  85  11  838
1477472195.936:     -1  85  11  838
1477472195.937:     11  85  11  838
1477472195.937:     26  85  11  838
1477472195.937:     41  85  11  838
1477472195.937:     46  85  11  838
1477472195.938:     31  85  11  838
1477472195.940:      6  85  11  838
1477472195.943:     -8  85  11  838
1477472195.947:      5  85  11  838
1477472195.948:     40  85  11  838
1477472195.949:     80  85  11  838
1477472195.951:    109  85  11  838
1477472195.952:    125  85  11  838
1477472195.955:    130  85  11  838
1477472195.957:    127  85  11  838
1477472195.972:    113  85  11  838
1477472195.972:     91  85  11  838
1477472195.972:     69  85  11  838
1477472195.972:     55  85  11  838
1477472195.972:     52  85  11  838
1477472195.972:     57  85  11  838
1477472195.973:     68  85  11  838
1477472195.975:     82  85  11  838
1477472195.975:     96  85  11  838
1477472195.977:    105  85  11  838
1477472195.978:    103  85  11  838
1477472195.981:     89  85  11  838
1477472195.982:     73  85  11  838
1477472195.984:     64  85  11  838
1477472195.988:     65  85  11  838
1477472195.989:     71  85  11  838
1477472196.011:     74  85  11  838
1477472196.012:     72  85  11  838
1477472196.013:     67  85  11  838
1477472196.013:     61  85  11  838
1477472196.014:     47  85  11  838
1477472196.014:     22  85  11  838
1477472196.015:     -5  85  11  838
1477472196.016:    -23  85  11  838
1477472196.016:    -25  85  11  838
1477472196.017:    -17  85  11  838
1477472196.018:    -12  85  11  838
1477472196.018:    -21  85  11  838
1477472196.019:    -37  85  11  838
1477472196.020:    -48  85  11  838
1477472196.020:    -49  85  11  838
1477472196.021:    -51  85  11  838
1477472196.021:    -68  85  11  838
1477472196.023:   -102  85  11  838
1477472196.036:   -150  85  11  838
1477472196.037:   -224  85  11  838
1477472196.037:   -344  85  11  838
1477472196.037:   -503  85  11  838
1477472196.038:   -647  85  11  838
1477472196.038:   -705  85  11  838
1477472196.038:   -661  85  11  838
1477472196.039:   -556  85  11  838
1477472196.044:   -424  85  11  838
1477472196.044:   -218  85  11  838
1477472196.047:    163  85  11  838
1477472196.047:    774  85  11  838
1477472196.048:   1559  85  11  838
1477472196.050:   2390  85  11  838
1477472196.076:   3170  85  11  838
1477472196.077:   3889  85  11  838
1477472196.078:   4591  85  11  838
1477472196.078:   5301  85  11  838
1477472196.078:   5983  85  11  838
1477472196.079:   6564  85  11  838
1477472196.079:   6977  85  11  838
1477472196.079:   7194  85  11  838
1477472196.079:   7230  85  11  838
1477472196.079:   7133  85  11  838
1477472196.080:   6942  85  11  838
1477472196.080:   6676  85  11  838
1477472196.080:   6344  85  11  838
1477472196.080:   5964  85  11  838
1477472196.081:   5579  85  11  838
1477472196.085:   5244  85  11  838
1477472196.085:   4998  85  11  838
1477472196.087:   4834  85  11  838
1477472196.091:   4703  85  11  838
1477472196.091:   4542  70   9  817
1477472196.092:   4317  70   9  817
1477472196.094:   4049  70   9  817
1477472196.108:   3782  70   9  817
1477472196.108:   3509  70   9  817
1477472196.108:   3159  70   9  817
1477472196.108:   2664  70   9  817
1477472196.109:   2054  70   9  817
1477472196.109:   1445  70   9  817
1477472196.109:    939  70   9  817
1477472196.114:    527  70   9  817
1477472196.114:    117  70   9  817
1477472196.114:   -342  70   9  817
1477472196.115:   -800  70   9  817
1477472196.117:  -1161  70   9  817
1477472196.119:  -1387  70   9  817
1477472196.122:  -1527  70   9  817
1477472196.131:  -1658  70   9  817
1477472196.131:  -1809  70   9  817
1477472196.131:  -1953  70   9  817
1477472196.131:  -2061  70   9  817
1477472196.132:  -2131  70   9  817
1477472196.133:  -2184  70   9  817
1477472196.135:  -2234  70   9  817
1477472196.137:  -2279  70   9  817
1477472196.139:  -2308  70   9  817
1477472196.140:  -2319  70   9  817
1477472196.145:  -2325  70   9  817
1477472196.145:  -2344  70   9  817
1477472196.148:  -2377  70   9  817
1477472196.148:  -2410  70   9  817
1477472196.151:  -2423  70   9  817
1477472196.153:  -2403  70   9  817
1477472196.154:  -2358  70   9  817
1477472196.159:  -2304  70   9  817
1477472196.172:  -2256  70   9  817
1477472196.173:  -2217  70   9  817
1477472196.173:  -2185  70   9  817
1477472196.173:  -2157  70   9  817
1477472196.174:  -2134  70   9  817
1477472196.174:  -2119  70   9  817
1477472196.174:  -2106  70   9  817
1477472196.174:  -2085  70   9  817
1477472196.175:  -2049  70   9  817
1477472196.176:  -2002  70   9  817
1477472196.178:  -1955  70   9  817
1477472196.180:  -1917  70   9  817
1477472196.191:  -1890  70   9  817
1477472196.191:  -1866  70   9  817
1477472196.192:  -1846  70   9  817
1477472196.192:  -1831  70   9  817
1477472196.192:  -1824  70   9  817
1477472196.192:  -1821  70   9  817
1477472196.194:  -1813  70   9  817
1477472196.195:  -1792  70   9  817
1477472196.200:  -1764  70   9  817
1477472196.200:  -1739  70   9  817
1477472196.201:  -1717  70   9  817
1477472196.203:  -1694  70   9  817
1477472196.205:  -1669  70   9  817
1477472196.208:  -1649  70   9  817
1477472196.209:  -1641  70   9  817
1477472196.214:  -1647  70   9  817
1477472196.214:  -1655  70   9  817
1477472196.216:  -1661  70   9  817
1477472196.217:  -1663  70   9  817
1477472196.221:  -1665  70   9  817
1477472196.232:  -1664  70   9  817
1477472196.233:  -1656  70   9  817
1477472196.233:  -1643  70   9  817
1477472196.234:  -1638  70   9  817
1477472196.234:  -1647  70   9  817
1477472196.235:  -1666  70   9  817
1477472196.235:  -1681  70   9  817
1477472196.236:  -1689  70   9  817
1477472196.237:  -1702  70   9  817
1477472196.243:  -1726  70   9  817
1477472196.254:  -1755  70   9  817
1477472196.254:  -1776  70   9  817
1477472196.254:  -1785  70   9  817
1477472196.257:  -1794  70   9  817
1477472196.258:  -1815  70   9  817
1477472196.258:  -1847  70   9  817
1477472196.259:  -1877  70   9  817
1477472196.260:  -1901  70   9  817
1477472196.267:  -1923  70   9  817
1477472196.268:  -1953  70   9  817
1477472196.274:  -1990  70   9  817
1477472196.276:  -2030  70   9  817
1477472196.277:  -2069  70   9  817
1477472196.285:  -2110  70   9  817
1477472196.286:  -2156  70   9  817
1477472196.287:  -2209  70   9  817
1477472196.288:  -2268  70   9  817
1477472196.288:  -2334  70   9  817
1477472196.294:  -2406  70   9  817
1477472196.295:  -2480  70   9  817
1477472196.299:  -2550  70   9  817
1477472196.326:  -2615  70   9  817
1477472196.328:  -2682  70   9  817
1477472196.329:  -2756  70   9  817
1477472196.332:  -2837  70   9  817
1477472196.333:  -2913  70   9  817
1477472196.333:  -2978  70   9  817
1477472196.334:  -3037  70   9  817
1477472196.348:  -3102  70   9  817
1477472196.348:  -3175  70   9  817
1477472196.349:  -3244  70   9  817
1477472196.349:  -3295  70   9  817
1477472196.349:  -3327  70   9  817
1477472196.349:  -3353  70   9  817
1477472196.350:  -3384  70   9  817
1477472196.350:  -3418  70   9  817
1477472196.350:  -3442  70   9  817
1477472196.350:  -3453  70   9  817
1477472196.350:  -3456  70   9  817
1477472196.358:  -3463  70   9  817
1477472196.366:  -3470  70   9  817
1477472196.367:  -3467  70   9  817
1477472196.367:  -3443  70   9  817
1477472196.367:  -3402  70   9  817
1477472196.368:  -3356  70   9  817
1477472196.368:  -3307  70   9  817
1477472196.368:  -3250  70   9  817
1477472196.368:  -3178  70   9  817
1477472196.369:  -3094  70   9  817
1477472196.369:  -3005  70   9  817
1477472196.369:  -2915  70   9  817
1477472196.369:  -2814  70   9  817
1477472196.370:  -2696  70   9  817
1477472196.370:  -2565  70   9  817
1477472196.370:  -2431  70   9  817
1477472196.370:  -2297  70   9  817
1477472196.371:  -2154  70   9  817
1477472196.371:  -1994  70   9  817
1477472196.371:  -1823  70   9  817
1477472196.371:  -1654  70   9  817
1477472196.372:  -1494  70   9  817
1477472196.372:  -1336  70   9  817
1477472196.373:  -1166  70   9  817
1477472196.373:   -986  70   9  817
1477472196.373:   -806  70   9  817
1477472196.373:   -639  70   9  817
1477472196.374:   -487  70   9  817
1477472196.375:   -344  70   9  817
1477472196.377:   -205  70   9  817
1477472196.378:    -66  70   9  817
1477472196.397:     67  70   9  817
1477472196.463:    193  70   9  817
1477472196.465:    310  70   9  817
1477472196.465:    419  70   9  817
1477472196.465:    521  70   9  817
1477472196.466:    615  70   9  817
1477472196.466:    699  70   9  817
1477472196.466:    774  70   9  817
1477472196.467:    840  70   9  817
1477472196.467:    907  70   9  817
1477472196.467:    975  70   9  817
1477472196.468:   1043  70   9  817
1477472196.468:   1104  70   9  817
1477472196.469:   1156  70   9  817
1477472196.469:   1202  70   9  817
1477472196.469:   1243  70   9  817
1477472196.470:   1276  70   9  817
1477472196.470:   1300  70   9  817
1477472196.471:   1318  70   9  817
1477472196.471:   1332  70   9  817
1477472196.472:   1341  70   9  817
1477472196.472:   1342  70   9  817
1477472196.472:   1343  70   9  817
1477472196.472:   1355  70   9  817
1477472196.473:   1377  70   9  817
1477472196.473:   1397  70   9  817
1477472196.474:   1398  70   9  817
1477472196.474:   1381  70   9  817
1477472196.491:   1361  70   9  817
1477472196.492:   1348  70   9  817
1477472196.493:   1338  70   9  817
1477472196.493:   1321  70   9  817
1477472196.493:   1294  70   9  817
1477472196.493:   1273  70   9  817
1477472196.494:   1266  70   9  817
1477472196.496:   1268  70   9  817
1477472196.496:   1266  70   9  817
1477472196.497:   1253  70   9  817
1477472196.497:   1235  70   9  817
1477472196.498:   1221  70   9  817
1477472196.498:   1209  70   9  817
1477472196.498:   1194  70   9  817
1477472196.498:   1170  70   9  817
1477472196.499:   1146  70   9  817
1477472196.499:   1127  70   9  817
1477472196.499:   1114  70   9  817
1477472196.499:   1097  70   9  817
1477472196.500:   1072  70   9  817
1477472196.500:   1039  70   9  817
1477472196.500:   1005  70   9  817
1477472196.514:    971  70   9  817
1477472196.515:    935  70   9  817
1477472196.515:    900  70   9  817
1477472196.515:    874  70   9  817
1477472196.515:    862  70   9  817
1477472196.515:    857  70   9  817
1477472196.515:    844  70   9  817
1477472196.515:    818  70   9  817
1477472196.516:    788  70   9  817
1477472196.516:    763  70   9  817
1477472196.516:    741  70   9  817
1477472196.516:    712  70   9  817
1477472196.517:    671  70   9  817
1477472196.517:    631  70   9  817
1477472196.517:    606  70   9  817
1477472196.517:    595  70   9  817
1477472196.517:    581  70   9  817
1477472196.517:    551  70   9  817
1477472196.517:    508  70   9  817
1477472196.518:    465  70   9  817
1477472196.518:    432  70   9  817
1477472196.518:    404  70   9  817
1477472196.519:    374  70   9  817
1477472196.522:    345  70   9  817
1477472196.524:    324  70   9  817
1477472196.530:    312  70   9  817
1477472196.531:    305  70   9  817
1477472196.532:    294  70   9  817
1477472196.533:    280  70   9  817
1477472196.534:    265  70   9  817
1477472196.535:    249  70   9  817
1477472196.538:    230  70   9  817
1477472196.548:    209  70   9  817
1477472196.548:    193  70   9  817
1477472196.548:    187  70   9  817
1477472196.548:    191  70   9  817
1477472196.548:    193  70   9  817
1477472196.549:    187  70   9  817
1477472196.552:    172  70   9  817
1477472196.557:    154  70   9  817
1477472196.569:    139  70   9  817
1477472196.569:    130  70   9  817
1477472196.569:    128  70   9  817
1477472196.569:    134  70   9  817
1477472196.570:    145  70   9  817
1477472196.570:    157  70   9  817
1477472196.575:    166  70   9  817
1477472196.575:    171  70   9  817
1477472196.581:    173  70   9  817
1477472196.582:    173  70   9  817
1477472196.584:    168  70   9  817
1477472196.588:    160  70   9  817
1477472196.588:    152  70   9  817
1477472196.588:    150  70   9  817
1477472196.590:    156  70   9  817
1477472196.590:    165  70   9  817
1477472196.595:    172  70   9  817
1477472196.595:    177  70   9  817
1477472196.596:    182  70   9  817
1477472196.597:    184  70   9  817
1477472196.632:    179  70   9  817
1477472196.633:    164  70   9  817
1477472196.633:    148  70   9  817
1477472196.633:    144  70   9  817
1477472196.633:    156  70   9  817
1477472196.634:    175  70   9  817
1477472196.634:    188  70   9  817
1477472196.634:    195  70   9  817
1477472196.634:    202  70   9  817
1477472196.635:    218  70   9  817
1477472196.635:    234  70   9  817
1477472196.635:    244  70   9  817
1477472196.636:    247  70   9  817
1477472196.636:    257  70   9  817
1477472196.636:    284  70   9  817
1477472196.637:    322  70   9  817
1477472196.637:    357  70   9  817
1477472196.637:    381  70   9  817
1477472196.638:    401  70   9  817
1477472196.638:    428  70   9  817
1477472196.638:    459  70   9  817
1477472196.644:    484  70   9  817
1477472196.644:    496  70   9  817
1477472196.646:    500  70   9  817
1477472196.646:    510  70   9  817
1477472196.648:    527  70   9  817
1477472196.649:    539  70   9  817
1477472196.653:    537  70   9  817
1477472196.662:    524  70   9  817
1477472196.663:    508  70   9  817
1477472196.663:    493  70   9  817
1477472196.663:    473  70   9  817
1477472196.663:    447  70   9  817
1477472196.663:    422  70   9  817
1477472196.666:    413  70   9  817
1477472196.667:    419  70   9  817
1477472196.672:    423  70   9  817
1477472196.677:    414  70   9  817
1477472196.685:    398  70   9  817
1477472196.686:    388  70   9  817
1477472196.687:    383  70   9  817
1477472196.688:    372  70   9  817
1477472196.691:    346  70   9  817
1477472196.692:    317  70   9  817
1477472196.703:    299  70   9  817
1477472196.704:    299  70   9  817
1477472196.706:    304  70   9  817
1477472196.708:    296  70   9  817
1477472196.708:    277  70   9  817
1477472196.708:    257  70   9  817
1477472196.708:    247  70   9  817
1477472196.709:    243  70   9  817
1477472196.722:    234  70   9  817
1477472196.723:    217  70   9  817
1477472196.723:    199  70   9  817
1477472196.724:    187  70   9  817
1477472196.725:    179  70   9  817
1477472196.725:    168  70   9  817
1477472196.726:    150  70   9  817
1477472196.726:    128  70   9  817
1477472196.727:    102  70   9  817
1477472196.727:     71  70   9  817
1477472196.727:     36  70   9  817
1477472196.728:      6  70   9  817
1477472196.731:     -8  70   9  817
1477472196.732:     -6  70   9  817
1477472196.741:     -1  70   9  817
1477472196.741:     -6  70   9  817
1477472196.741:    -23  70   9  817
1477472196.741:    -44  70   9  817
1477472196.742:    -64  70   9  817
1477472196.742:    -84  70   9  817
1477472196.744:   -106  70   9  817
1477472196.747:   -126  70   9  817
1477472196.747:   -136  70   9  817
1477472196.750:   -133  70   9  817
1477472196.751:   -126  70   9  817
1477472196.754:   -123  70   9  817
1477472196.754:   -122  70   9  817
1477472196.755:   -109  70   9  817
1477472196.758:    -83  70   9  817
1477472196.758:    -56  70   9  817
1477472196.761:    -46  70   9  817
1477472196.762:    -52  70   9  817
1477472196.767:    -57  70   9  817
1477472196.767:    -42  70   9  817
1477472196.768:    -13  70   9  817
1477472196.772:      8  70   9  817
1477472196.773:      5  70   9  817
1477472196.773:    -12  70   9  817
1477472196.774:    -21  70   9  817
1477472196.775:     -9  70   9  817
1477472196.777:     11  70   9  817
1477472196.778:     19  70   9  817
1477472196.786:     14  70   9  817
1477472196.786:     12  70   9  817
1477472196.795:     26  70   9  817
1477472196.795:     46  70   9  817
1477472196.796:     55  70   9  817
1477472196.796:     51  70   9  817
1477472196.796:     43  70   9  817
1477472196.797:     43  70   9  817
1477472196.797:     43  70   9  817
1477472196.799:     34  70   9  817
1477472196.799:     22  70   9  817
1477472196.800:     26  70   9  817
1477472196.804:     50  70   9  817
1477472196.814:     74  70   9  817
1477472196.816:     78  70   9  817
1477472196.816:     66  70   9  817
1477472196.817:     65  70   9  817
1477472196.818:     85  70   9  817
1477472196.820:    105  70   9  817
1477472196.820:     96  70   9  817
1477472196.821:     59  70   9  817
1477472196.826:     22  70   9  817
1477472196.827:     13  70   9  817
1477472196.832:     28  70   9  817
1477472196.833:     40  70   9  817
1477472196.837:     34  70   9  817
1477472196.837:     19  70   9  817
1477472196.838:     15  70   9  817
1477472196.842:     27  70   9  817
1477472196.843:     47  70   9  817
1477472196.857:     60  70   9  817
1477472196.858:     64  70   9  817
1477472196.859:     63  70   9  817
1477472196.859:     63  70   9  817
1477472196.861:     64  70   9  817
1477472196.863:     64  70   9  817
1477472196.874:     60  70   9  817
1477472196.875:     54  70   9  817
1477472196.875:     50  70   9  817
1477472196.875:     47  70   9  817
1477472196.876:     40  70   9  817
1477472196.876:     26  70   9  817
1477472196.876:     15  70   9  817
1477472196.876:     16  70   9  817
1477472196.877:     29  70   9  817
1477472196.877:     40  70   9  817
1477472196.877:     31  70   9  817
1477472196.877:      5  70   9  817
1477472196.878:    -22  70   9  817
1477472196.878:    -39  70   9  817
1477472196.879:    -48  70   9  817
1477472196.887:    -59  70   9  817
1477472196.887:    -73  70   9  817
1477472196.889:    -82  70   9  817
1477472196.893:    -76  70   9  817
1477472196.894:    -58  70   9  817
1477472196.899:    -47  70   9  817
1477472196.907:    -59  70   9  817
1477472196.907:    -91  70   9  817
1477472196.907:   -127  70   9  817
1477472196.909:   -164  70   9  817
1477472196.909:   -232  70   9  817
1477472196.927:   -366  70   9  817
1477472196.928:   -546  70   9  817
1477472196.928:   -690  70   9  817
1477472196.929:   -714  70   9  817
1477472196.929:   -615  70   9  817
1477472196.930:   -463  70   9  817
1477472196.930:   -305  70   9  817
1477472196.931:    -79  70   9  817
1477472196.932:    343  70   9  817
1477472196.933:   1025  70   9  817
1477472196.933:   1888  70   9  817
1477472196.933:   2778  70   9  817
1477472196.934:   3588  70   9  817
1477472196.934:   4324  70   9  817
1477472196.934:   5050  70   9  817
1477472196.935:   5795  70   9  817
1477472196.936:   6511  70   9  817
1477472196.944:   7104  70   9  817
1477472196.948:   7501  70   9  817
1477472196.948:   7687  70   9  817
1477472196.948:   7705  70   9  817
1477472196.949:   7613  70   9  817
1477472196.955:   7443  70   9  817
1477472196.957:   7198  70   9  817
1477472196.961:   6877  70   9  817
1477472196.962:   6504  70   9  817
1477472196.965:   6127  70   9  817
1477472196.965:   5796  70   9  817
1477472196.966:   5536  70   9  817
1477472196.966:   5342  70   9  817
1477472196.967:   5178  70   9  817
1477472196.969:   4997  70   9  817
1477472196.969:   4767  70   9  817
1477472196.971:   4496  70   9  817
1477472196.971:   4217  70   9  817
1477472196.973:   3927  70   9  817
1477472196.983:   3564  70   9  817
1477472196.983:   3064  70   9  817
1477472196.983:   2443  70   9  817
1477472196.985:   1810  70   9  817
1477472196.989:   1267  70   9  817
1477472196.992:    813  70   9  817
1477472197.004:    367  70   9  817
1477472197.004:   -125  70   9  817
1477472197.004:   -618  72   9  817
1477472197.004:  -1012  72   9  817
1477472197.004:  -1266  72   9  817
1477472197.005:  -1432  72   9  817
1477472197.005:  -1594  72   9  817
1477472197.005:  -1785  72   9  817
1477472197.005:  -1966  72   9  817
1477472197.007:  -2092  72   9  817
1477472197.008:  -2159  72   9  817
1477472197.008:  -2206  72   9  817
1477472197.010:  -2260  72   9  817
1477472197.012:  -2315  72   9  817
1477472197.013:  -2349  72   9  817
1477472197.014:  -2361  72   9  817
1477472197.015:  -2382  72   9  817
1477472197.017:  -2433  72   9  817
1477472197.018:  -2501  72   9  817
1477472197.020:  -2546  72   9  817
1477472197.032:  -2540  72   9  817
1477472197.033:  -2493  72   9  817
1477472197.033:  -2432  72   9  817
1477472197.033:  -2382  72   9  817
1477472197.033:  -2346  72   9  817
1477472197.034:  -2317  72   9  817
1477472197.034:  -2296  72   9  817
1477472197.037:  -2290  72   9  817
1477472197.041:  -2302  72   9  817
1477472197.041:  -2324  72   9  817
1477472197.051:  -2333  72   9  817
1477472197.052:  -2317  72   9  817
1477472197.052:  -2280  72   9  817
1477472197.053:  -2237  72   9  817
1477472197.055:  -2206  72   9  817
1477472197.057:  -2186  72   9  817
1477472197.057:  -2170  72   9  817
1477472197.061:  -2156  72   9  817
1477472197.062:  -2144  72   9  817
1477472197.064:  -2134  72   9  817
1477472197.067:  -2116  72   9  817
1477472197.068:  -2081  72   9  817
1477472197.070:  -2036  72   9  817
1477472197.070:  -1995  72   9  817
1477472197.072:  -1968  72   9  817
1477472197.073:  -1950  72   9  817
1477472197.085:  -1932  72   9  817
1477472197.086:  -1919  72   9  817
1477472197.103:  -1926  72   9  817
1477472197.103:  -1957  72   9  817
1477472197.104:  -1995  72   9  817
1477472197.104:  -2020  72   9  817
1477472197.104:  -2034  72   9  817
1477472197.104:  -2053  72   9  817
1477472197.104:  -2092  72   9  817
1477472197.105:  -2141  72   9  817
1477472197.105:  -2179  72   9  817
1477472197.105:  -2203  72   9  817
1477472197.105:  -2223  72   9  817
1477472197.105:  -2251  72   9  817
1477472197.107:  -2279  72   9  817
1477472197.108:  -2295  72   9  817
1477472197.109:  -2296  72   9  817
1477472197.117:  -2294  72   9  817
1477472197.117:  -2302  72   9  817
1477472197.119:  -2319  72   9  817
1477472197.122:  -2335  72   9  817
1477472197.123:  -2348  72   9  817
1477472197.138:  -2366  72   9  817
1477472197.138:  -2397  72   9  817
1477472197.138:  -2440  72   9  817
1477472197.138:  -2481  72   9  817
1477472197.138:  -2513  72   9  817
1477472197.138:  -2538  72   9  817
1477472197.139:  -2570  72   9  817
1477472197.139:  -2612  72   9  817
1477472197.139:  -2659  72   9  817
1477472197.141:  -2702  72   9  817
1477472197.141:  -2739  72   9  817
1477472197.143:  -2779  72   9  817
1477472197.146:  -2832  72   9  817
1477472197.147:  -2900  72   9  817
1477472197.149:  -2978  72   9  817
1477472197.152:  -3064  72   9  817
1477472197.163:  -3154  72   9  817
1477472197.164:  -3246  72   9  817
1477472197.165:  -3341  72   9  817
1477472197.167:  -3436  72   9  817
1477472197.167:  -3535  72   9  817
1477472197.169:  -3636  72   9  817
1477472197.184:  -3735  72   9  817
1477472197.184:  -3824  72   9  817
1477472197.184:  -3902  72   9  817
1477472197.184:  -3971  72   9  817
1477472197.195:  -4041  72   9  817
1477472197.195:  -4117  72   9  817
1477472197.198:  -4200  72   9  817
1477472197.199:  -4282  72   9  817
1477472197.212:  -4355  72   9  817
1477472197.212:  -4416  72   9  817
1477472197.219:  -4461  72   9  817
1477472197.219:  -4494  72   9  817
1477472197.219:  -4519  72   9  817
1477472197.219:  -4540  72   9  817
1477472197.220:  -4556  72   9  817
1477472197.220:  -4560  72   9  817
1477472197.220:  -4547  72   9  817
1477472197.220:  -4516  72   9  817
1477472197.220:  -4477  72   9  817
1477472197.221:  -4437  72   9  817
1477472197.221:  -4395  72   9  817
1477472197.221:  -4342  72   9  817
1477472197.222:  -4267  72   9  817
1477472197.222:  -4170  72   9  817
1477472197.223:  -4058  72   9  817
1477472197.223:  -3936  72   9  817
1477472197.223:  -3803  72   9  817
1477472197.223:  -3657  72   9  817
1477472197.223:  -3501  72   9  817
1477472197.224:  -3345  72   9  817
1477472197.224:  -3194  72   9  817
1477472197.229:  -3040  72   9  817
1477472197.233:  -2876  72   9  817
1477472197.238:  -2702  72   9  817
1477472197.246:  -2529  72   9  817
1477472197.246:  -2363  72   9  817
1477472197.246:  -2206  72   9  817
1477472197.247:  -2049  72   9  817
1477472197.247:  -1889  72   9  817
1477472197.247:  -1727  72   9  817
1477472197.247:  -1569  72   9  817
1477472197.249:  -1414  72   9  817
1477472197.251:  -1257  72   9  817
1477472197.252:  -1096  72   9  817
1477472197.252:   -934  72   9  817
1477472197.252:   -780  72   9  817
1477472197.254:   -637  72   9  817
1477472197.259:   -504  72   9  817
1477472197.259:   -380  72   9  817
1477472197.266:   -264  72   9  817
1477472197.276:   -156  72   9  817
1477472197.277:    -55  72   9  817
1477472197.295:     40  72   9  817
1477472197.295:    129  72   9  817
1477472197.297:    210  72   9  817
1477472197.297:    278  72   9  817
1477472197.299:    333  72   9  817
1477472197.300:    378  72   9  817
1477472197.301:    418  72   9  817
1477472197.301:    450  72   9  817
1477472197.302:    472  72   9  817
1477472197.302:    481  72   9  817
1477472197.303:    488  72   9  817
1477472197.303:    500  72   9  817
1477472197.304:    521  72   9  817
1477472197.364:    543  72   9  817
1477472197.365:    558  72   9  817
1477472197.365:    563  72   9  817
1477472197.365:    563  72   9  817
1477472197.365:    561  72   9  817
1477472197.365:    558  72   9  817
1477472197.365:    554  72   9  817
1477472197.365:    551  72   9  817
1477472197.366:    551  72   9  817
1477472197.366:    551  72   9  817
1477472197.366:    544  72   9  817
1477472197.366:    530  72   9  817
1477472197.366:    512  72   9  817
1477472197.366:    495  72   9  817
1477472197.367:    479  72   9  817
1477472197.367:    456  72   9  817
1477472197.367:    425  72   9  817
1477472197.368:    395  72   9  817
1477472197.368:    379  72   9  817
1477472197.368:    378  72   9  817
1477472197.368:    379  72   9  817
1477472197.369:    370  72   9  817
1477472197.369:    351  72   9  817
1477472197.369:    334  72   9  817
1477472197.369:    327  72   9  817
1477472197.369:    324  72   9  817
1477472197.369:    318  72   9  817
1477472197.370:    307  72   9  817
1477472197.370:    299  72   9  817
1477472197.370:    300  72   9  817
1477472197.372:    304  72   9  817
1477472197.372:    307  72   9  817
1477472197.377:    307  72   9  817
1477472197.377:    308  72   9  817
1477472197.377:    311  72   9  817
1477472197.378:    313  72   9  817
1477472197.378:    311  72   9  817
1477472197.382:    307  72   9  817
1477472197.386:    306  72   9  817
1477472197.395:    307  72   9  817
1477472197.395:    304  72   9  817
1477472197.395:    296  72   9  817
1477472197.395:    281  72   9  817
1477472197.396:    259  72   9  817
1477472197.396:    226  72   9  817
1477472197.396:    181  72   9  817
1477472197.396:    131  72   9  817
1477472197.396:     89  72   9  817
1477472197.396:     60  72   9  817
1477472197.397:     40  72   9  817
1477472197.398:     20  72   9  817
1477472197.399:     -3  72   9  817
1477472197.401:    -27  72   9  817
1477472197.401:    -50  72   9  817
1477472197.402:    -70  72   9  817
1477472197.403:    -87  72   9  817
1477472197.407:   -105  72   9  817
1477472197.407:   -125  72   9  817
1477472197.413:   -149  72   9  817
1477472197.413:   -177  72   9  817
1477472197.414:   -206  72   9  817
1477472197.425:   -231  72   9  817
1477472197.425:   -248  72   9  817
1477472197.426:   -260  72   9  817
1477472197.427:   -274  72   9  817
1477472197.429:   -290  72   9  817
1477472197.430:   -305  72   9  817
1477472197.430:   -312  72   9  817
1477472197.432:   -310  72   9  817
1477472197.436:   -309  72   9  817
1477472197.438:   -313  72   9  817
1477472197.460:   -321  72   9  817
1477472197.460:   -325  72   9  817
1477472197.460:   -328  72   9  817
1477472197.461:   -338  72   9  817
1477472197.461:   -357  72   9  817
1477472197.461:   -376  72   9  817
1477472197.461:   -381  72   9  817
1477472197.461:   -372  72   9  817
1477472197.475:   -365  72   9  817
1477472197.475:   -371  72   9  817
1477472197.483:   -382  72   9  817
1477472197.483:   -388  72   9  817
1477472197.483:   -393  72   9  817
1477472197.484:   -414  72   9  817
1477472197.496:   -458  72   9  817
1477472197.497:   -513  72   9  817
1477472197.501:   -555  72   9  817
1477472197.501:   -579  72   9  817
1477472197.512:   -593  72   9  817
1477472197.512:   -606  72   9  817
1477472197.524:   -614  72   9  817
1477472197.524:   -605  72   9  817
1477472197.525:   -578  72   9  817
1477472197.525:   -543  72   9  817
1477472197.525:   -508  72   9  817
1477472197.525:   -473  72   9  817
1477472197.525:   -437  72   9  817
1477472197.526:   -401  72   9  817
1477472197.526:   -370  72   9  817
1477472197.526:   -346  72   9  817
1477472197.526:   -324  72   9  817
1477472197.526:   -298  72   9  817
1477472197.526:   -274  72   9  817
1477472197.527:   -256  72   9  817
1477472197.527:   -247  72   9  817
1477472197.527:   -243  72   9  817
1477472197.527:   -234  72   9  817
1477472197.527:   -219  72   9  817
1477472197.528:   -198  72   9  817
1477472197.528:   -174  72   9  817
1477472197.528:   -147  72   9  817
1477472197.528:   -116  72   9  817
1477472197.528:    -85  72   9  817
1477472197.528:    -57  72   9  817
1477472197.528:    -36  72   9  817
1477472197.528:    -17  72   9  817
1477472197.529:      9  72   9  817
1477472197.534:     44  72   9  817
1477472197.546:     80  72   9  817
1477472197.546:    107  72   9  817
1477472197.546:    120  72   9  817
1477472197.547:    128  72   9  817
1477472197.547:    142  72   9  817
1477472197.549:    165  72   9  817
1477472197.550:    192  72   9  817
1477472197.551:    213  72   9  817
1477472197.556:    230  72   9  817
1477472197.556:    250  72   9  817
1477472197.557:    285  72   9  817
1477472197.557:    337  72   9  817
1477472197.558:    396  72   9  817
1477472197.558:    445  72   9  817
1477472197.564:    478  72   9  817
1477472197.570:    497  72   9  817
1477472197.584:    515  72   9  817
1477472197.584:    535  72   9  817
1477472197.584:    554  72   9  817
1477472197.584:    563  72   9  817
1477472197.584:    562  72   9  817
1477472197.584:    563  72   9  817
1477472197.584:    580  72   9  817
1477472197.585:    610  72   9  817
1477472197.585:    642  72   9  817
1477472197.585:    661  72   9  817
1477472197.585:    667  72   9  817
1477472197.585:    672  72   9  817
1477472197.606:    684  72   9  817
1477472197.607:    703  72   9  817
1477472197.607:    721  72   9  817
1477472197.610:    732  72   9  817
1477472197.610:    737  72   9  817
1477472197.611:    742  72   9  817
1477472197.613:    749  72   9  817
1477472197.614:    759  72   9  817
1477472197.615:    767  72   9  817
1477472197.616:    768  72   9  817
1477472197.616:    765  72   9  817
1477472197.617:    765  72   9  817
1477472197.617:    775  72   9  817
1477472197.618:    793  72   9  817
1477472197.619:    814  72   9  817
1477472197.619:    831  72   9  817
1477472197.619:    845  72   9  817
1477472197.619:    858  72   9  817
1477472197.619:    871  72   9  817
1477472197.620:    877  72   9  817
1477472197.620:    876  72   9  817
1477472197.622:    872  72   9  817
1477472197.626:    873  72   9  817
1477472197.626:    882  72   9  817
1477472197.653:    892  72   9  817
1477472197.654:    895  72   9  817
1477472197.655:    887  72   9  817
1477472197.655:    875  72   9  817
1477472197.655:    864  72   9  817
1477472197.658:    860  72   9  817
1477472197.658:    864  72   9  817
1477472197.658:    873  72   9  817
1477472197.658:    882  72   9  817
1477472197.659:    896  72   9  817
1477472197.659:    918  72   9  817
1477472197.659:    952  72   9  817
1477472197.659:    989  72   9  817
1477472197.659:   1018  72   9  817
1477472197.660:   1035  72   9  817
1477472197.660:   1046  72   9  817
1477472197.662:   1058  72   9  817
1477472197.662:   1072  72   9  817
1477472197.663:   1082  72   9  817
1477472197.664:   1091  72   9  817
1477472197.664:   1104  72   9  817
1477472197.666:   1126  72   9  817
1477472197.667:   1153  72   9  817
1477472197.668:   1179  72   9  817
1477472197.671:   1207  72   9  817
1477472197.673:   1244  72   9  817
1477472197.674:   1296  72   9  817
1477472197.677:   1354  72   9  817
1477472197.679:   1410  72   9  817
1477472197.682:   1457  72   9  817
1477472197.700:   1500  72   9  817
1477472197.701:   1538  72   9  817
1477472197.702:   1571  72   9  817
1477472197.702:   1596  72   9  817
1477472197.703:   1612  72   9  817
1477472197.706:   1616  72   9  817
1477472197.707:   1611  72   9  817
1477472197.707:   1605  72   9  817
1477472197.707:   1614  72   9  817
1477472197.707:   1648  72   9  817
1477472197.707:   1702  72   9  817
1477472197.707:   1756  72   9  817
1477472197.709:   1798  72   9  817
1477472197.710:   1829  72   9  817
1477472197.722:   1862  72   9  817
1477472197.722:   1903  72   9  817
1477472197.722:   1942  72   9  817
1477472197.722:   1968  72   9  817
1477472197.723:   1976  72   9  817
1477472197.723:   1976  72   9  817
1477472197.724:   1981  72   9  817
1477472197.724:   1996  72   9  817
1477472197.726:   2019  72   9  817
1477472197.727:   2042  72   9  817
1477472197.730:   2066  72   9  817
1477472197.733:   2092  72   9  817
1477472197.734:   2122  72   9  817
1477472197.737:   2150  72   9  817
1477472197.746:   2168  72   9  817
1477472197.746:   2176  72   9  817
1477472197.747:   2176  72   9  817
1477472197.747:   2176  72   9  817
1477472197.748:   2176  72   9  817
1477472197.749:   2171  72   9  817
1477472197.752:   2160  72   9  817
1477472197.753:   2144  72   9  817
1477472197.753:   2128  72   9  817
1477472197.755:   2117  72   9  817
1477472197.765:   2108  72   9  817
1477472197.766:   2100  72   9  817
1477472197.767:   2097  72   9  817
1477472197.768:   2100  72   9  817
1477472197.769:   2105  72   9  817
1477472197.769:   2103  72   9  817
1477472197.770:   2090  72   9  817
1477472197.770:   2071  72   9  817
1477472197.773:   2058  72   9  817
1477472197.774:   2053  72   9  817
1477472197.786:   2047  72   9  817
1477472197.787:   2031  72   9  817
1477472197.787:   2005  72   9  817
1477472197.787:   1979  72   9  817
1477472197.787:   1961  72   9  817
1477472197.787:   1950  72   9  817
1477472197.787:   1936  72   9  817
1477472197.791:   1916  72   9  817
1477472197.793:   1895  72   9  817
1477472197.797:   1879  72   9  817
1477472197.797:   1868  72   9  817
1477472197.799:   1855  72   9  817
1477472197.801:   1836  72   9  817
1477472197.802:   1818  72   9  817
1477472197.808:   1811  72   9  817
1477472197.809:   1818  72   9  817
1477472197.811:   1831  72   9  817
1477472197.815:   1836  72   9  817
1477472197.828:   1830  72   9  817
1477472197.828:   1819  72   9  817
1477472197.828:   1813  72   9  817
1477472197.828:   1816  72   9  817
1477472197.828:   1823  72   9  817
1477472197.828:   1828  72   9  817
1477472197.829:   1831  72   9  817
1477472197.829:   1836  72   9  817
1477472197.829:   1848  72   9  817
1477472197.830:   1866  72   9  817
1477472197.834:   1881  72   9  817
1477472197.834:   1885  72   9  817
1477472197.835:   1882  72   9  817
1477472197.837:   1877  72   9  817
1477472197.842:   1874  72   9  817
1477472197.842:   1870  72   9  817
1477472197.850:   1863  72   9  817
1477472197.850:   1856  72   9  817
1477472197.850:   1853  72   9  817
1477472197.851:   1855  72   9  817
1477472197.853:   1855  72   9  817
1477472197.853:   1847  72   9  817
1477472197.854:   1834  72   9  817
1477472197.857:   1825  68   9  822
1477472197.861:   1825  68   9  822
1477472197.861:   1828  68   9  822
1477472197.865:   1826  68   9  822
1477472197.865:   1820  68   9  822
1477472197.867:   1816  68   9  822
1477472197.868:   1815  68   9  822
1477472197.882:   1812  68   9  822
1477472197.882:   1800  68   9  822
1477472197.883:   1779  68   9  822
1477472197.883:   1760  68   9  822
1477472197.883:   1747  68   9  822
1477472197.883:   1736  68   9  822
1477472197.883:   1713  68   9  822
1477472197.889:   1735  68   9  822
1477472197.889:   1771  68   9  822
1477472197.889:   1761  68   9  822
1477472197.891:   1707  68   9  822
1477472197.893:   1683  68   9  822
1477472197.894:   1745  68   9  822
1477472197.895:   1823  68   9  822
1477472197.902:   1793  68   9  822
1477472197.903:   1669  68   9  822
1477472197.914:   1625  68   9  822
1477472197.914:   1748  68   9  822
1477472197.914:   1863  68   9  822
1477472197.914:   1744  68   9  822
1477472197.915:   1490  68   9  822
1477472197.915:   1487  68   9  822
1477472197.915:   1915  68   9  822
1477472197.915:   2399  68   9  822
1477472197.920:   2383  68   9  822
1477472197.920:   1804  68   9  822
1477472197.922:   1227  68   9  822
1477472197.923:   1190  68   9  822
1477472197.926:   1576  68   9  822
1477472197.928:   1779  68   9  822
1477472197.929:   1456  68   9  822
1477472197.933:    907  68   9  822
1477472197.934:    659  68   9  822
1477472197.939:    855  68   9  822
1477472197.949:   1189  68   9  822
1477472197.950:   1357  68   9  822
1477472197.950:   1376  68   9  822
1477472197.951:   1418  68   9  822
1477472197.951:   1511  68   9  822
1477472197.951:   1545  68   9  822
1477472197.953:   1500  68   9  822
1477472197.954:   1491  68   9  822
1477472197.954:   1573  68   9  822
1477472197.957:   1655  68   9  822
1477472197.957:   1557  68   9  822
1477472197.959:   1336  68   9  822
1477472197.960:   1209  68   9  822
1477472197.969:   1292  68   9  822
1477472197.973:   1514  68   9  822
1477472197.974:   1755  68   9  822
1477472197.975:   2022  68   9  822
1477472197.975:   2432  68   9  822
1477472197.975:   3019  68   9  822
1477472197.976:   3654  68   9  822
1477472197.977:   4204  68   9  822
1477472197.978:   4710  68   9  822
1477472197.984:   5333  68   9  822
1477472197.984:   6113  68   9  822
1477472197.986:   6869  68   9  822
1477472197.987:   7376  68   9  822
1477472198.008:   7605  68   9  822
1477472198.009:   7717  68   9  822
1477472198.011:   7843  68   9  822
1477472198.013:   7938  68   9  822
1477472198.013:   7867  68   9  822
1477472198.014:   7595  68   9  822
1477472198.014:   7228  68   9  822
1477472198.015:   6892  68   9  822
1477472198.015:   6614  68   9  822
1477472198.016:   6338  68   9  822
1477472198.017:   6013  68   9  822
1477472198.018:   5639  68   9  822
1477472198.032:   5253  68   9  822
1477472198.032:   4892  68   9  822
1477472198.032:   4590  68   9  822
1477472198.032:   4352  68   9  822
1477472198.032:   4142  68   9  822
1477472198.032:   3909  68   9  822
1477472198.033:   3642  68   9  822
1477472198.033:   3376  68   9  822
1477472198.033:   3136  68   9  822
1477472198.033:   2877  68   9  822
1477472198.036:   2513  68   9  822
1477472198.037:   2014  68   9  822
1477472198.037:   1453  68   9  822
1477472198.041:    950  68   9  822
1477472198.041:    559  68   9  822
1477472198.044:    236  68   9  822
1477472198.045:    -93  68   9  822
1477472198.047:   -429  68   9  822
1477472198.048:   -708  68   9  822
1477472198.053:   -868  68   9  822
1477472198.055:   -919  68   9  822
1477472198.055:   -923  68   9  822
1477472198.066:   -938  68   9  822
1477472198.066:   -983  68   9  822
1477472198.066:  -1046  68   9  822
1477472198.066:  -1112  68   9  822
1477472198.067:  -1182  68   9  822
1477472198.067:  -1264  68   9  822
1477472198.070:  -1365  68   9  822
1477472198.070:  -1484  68   9  822
1477472198.072:  -1610  68   9  822
1477472198.079:  -1726  68   9  822
1477472198.079:  -1818  68   9  822
1477472198.080:  -1884  68   9  822
1477472198.080:  -1928  68   9  822
1477472198.082:  -1955  68   9  822
1477472198.083:  -1972  68   9  822
1477472198.084:  -1984  68   9  822
1477472198.098:  -1999  68   9  822
1477472198.098:  -2016  68   9  822
1477472198.099:  -2026  68   9  822
1477472198.099:  -2025  68   9  822
1477472198.099:  -2020  68   9  822
1477472198.099:  -2017  68   9  822
1477472198.099:  -2018  68   9  822
1477472198.101:  -2016  68   9  822
1477472198.103:  -2005  68   9  822
1477472198.107:  -1992  68   9  822
1477472198.118:  -1982  68   9  822
1477472198.118:  -1978  68   9  822
1477472198.118:  -1977  68   9  822
1477472198.118:  -1973  68   9  822
1477472198.119:  -1970  68   9  822
1477472198.119:  -1972  68   9  822
1477472198.121:  -1982  68   9  822
1477472198.121:  -1991  68   9  822
1477472198.123:  -1993  68   9  822
1477472198.125:  -1985  68   9  822
1477472198.127:  -1973  68   9  822
1477472198.128:  -1961  68   9  822
1477472198.130:  -1947  68   9  822
1477472198.135:  -1926  68   9  822
1477472198.140:  -1896  68   9  822
1477472198.140:  -1860  68   9  822
1477472198.140:  -1823  68   9  822
1477472198.140:  -1788  68   9  822
1477472198.142:  -1754  68   9  822
1477472198.145:  -1725  68   9  822
1477472198.149:  -1702  68   9  822
1477472198.149:  -1689  68   9  822
1477472198.151:  -1686  68   9  822
1477472198.152:  -1690  68   9  822
1477472198.153:  -1702  68   9  822
1477472198.156:  -1719  68   9  822
1477472198.236:  -1736  68   9  822
1477472198.236:  -1748  68   9  822
1477472198.236:  -1748  68   9  822
1477472198.236:  -1744  68   9  822
1477472198.237:  -1744  68   9  822
1477472198.237:  -1748  68   9  822
1477472198.237:  -1749  68   9  822
1477472198.237:  -1743  68   9  822
1477472198.237:  -1736  68   9  822
1477472198.237:  -1737  68   9  822
1477472198.237:  -1751  68   9  822
1477472198.238:  -1770  68   9  822
1477472198.238:  -1786  68   9  822
1477472198.238:  -1794  68   9  822
1477472198.238:  -1802  68   9  822
1477472198.238:  -1818  68   9  822
1477472198.238:  -1842  68   9  822
1477472198.238:  -1871  68   9  822
1477472198.239:  -1900  68   9  822
1477472198.239:  -1930  68   9  822
1477472198.239:  -1967  68   9  822
1477472198.239:  -2015  68   9  822
1477472198.240:  -2074  68   9  822
1477472198.240:  -2132  68   9  822
1477472198.240:  -2183  68   9  822
1477472198.240:  -2226  68   9  822
1477472198.240:  -2270  68   9  822
1477472198.240:  -2322  68   9  822
1477472198.240:  -2385  68   9  822
1477472198.241:  -2452  68   9  822
1477472198.241:  -2520  68   9  822
1477472198.241:  -2594  68   9  822
1477472198.241:  -2680  68   9  822
1477472198.241:  -2777  68   9  822
1477472198.242:  -2877  68   9  822
1477472198.242:  -2978  68   9  822
1477472198.242:  -3078  68   9  822
1477472198.242:  -3182  68   9  822
1477472198.242:  -3283  68   9  822
1477472198.243:  -3373  68   9  822
1477472198.243:  -3448  68   9  822
1477472198.243:  -3513  68   9  822
1477472198.243:  -3577  68   9  822
1477472198.245:  -3641  68   9  822
1477472198.245:  -3695  68   9  822
1477472198.247:  -3735  68   9  822
1477472198.262:  -3764  68   9  822
1477472198.263:  -3792  68   9  822
1477472198.263:  -3825  68   9  822
1477472198.263:  -3858  68   9  822
1477472198.264:  -3882  68   9  822
1477472198.264:  -3890  68   9  822
1477472198.264:  -3883  68   9  822
1477472198.264:  -3863  68   9  822
1477472198.264:  -3832  68   9  822
1477472198.266:  -3791  68   9  822
1477472198.268:  -3743  68   9  822
1477472198.273:  -3691  68   9  822
1477472198.273:  -3637  68   9  822
1477472198.274:  -3581  68   9  822
1477472198.295:  -3523  68   9  822
1477472198.295:  -3464  68   9  822
1477472198.295:  -3397  68   9  822
1477472198.296:  -3317  68   9  822
1477472198.296:  -3221  68   9  822
1477472198.296:  -3114  68   9  822
1477472198.296:  -2998  68   9  822
1477472198.297:  -2875  68   9  822
1477472198.297:  -2738  68   9  822
1477472198.297:  -2589  68   9  822
1477472198.297:  -2433  68   9  822
1477472198.300:  -2277  68   9  822
1477472198.300:  -2120  68   9  822
1477472198.302:  -1953  68   9  822
1477472198.303:  -1769  68   9  822
1477472198.309:  -1577  68   9  822
1477472198.319:  -1391  68   9  822
1477472198.319:  -1217  68   9  822
1477472198.320:  -1052  68   9  822
1477472198.320:   -887  68   9  822
1477472198.320:   -723  68   9  822
1477472198.320:   -570  68   9  822
1477472198.320:   -432  68   9  822
1477472198.321:   -304  68   9  822
