timestamp: ADC HeartRate4sAverage HeartRate30sAverage HRV8sAverage
1477472936.836:   -843  87  11  682
1477472936.837:   -867  87  11  682
1477472936.844:   -882  87  11  682
1477472936.844:   -885  87  11  682
1477472936.844:   -887  87  11  682
1477472936.845:   -889  87  11  682
1477472936.845:   -879  87  11  682
1477472936.845:   -843  87  11  682
1477472936.845:   -784  87  11  682
1477472936.845:   -729  87  11  682
1477472936.846:   -705  87  11  682
1477472936.846:   -713  87  11  682
1477472936.846:   -727  87  11  682
1477472936.846:   -722  87  11  682
1477472936.847:   -695  87  11  682
1477472936.847:   -670  87  11  682
1477472936.847:   -665  87  11  682
1477472936.847:   -673  87  11  682
1477472936.847:   -668  87  11  682
1477472936.848:   -641  87  11  682
1477472936.848:   -609  87  11  682
1477472936.848:   -599  87  11  682
1477472936.848:   -613  87  11  682
1477472936.849:   -625  87  11  682
1477472936.850:   -608  87  11  682
1477472936.851:   -565  87  11  682
1477472936.851:   -519  87  11  682
1477472936.851:   -490  87  11  682
1477472936.862:   -472  87  11  682
1477472936.862:   -453  87  11  682
1477472936.863:   -435  87  11  682
1477472936.863:   -432  87  11  682
1477472936.864:   -447  87  11  682
1477472936.867:   -466  87  11  682
1477472936.867:   -470  87  11  682
1477472936.867:   -452  87  11  682
1477472936.867:   -414  87  11  682
1477472936.868:   -366  87  11  682
1477472936.868:   -309  87  11  682
1477472936.868:   -242  87  11  682
1477472936.872:   -175  87  11  682
1477472936.874:   -122  87  11  682
1477472936.881:    -93  87  11  682
1477472936.881:    -81  87  11  682
1477472936.881:    -71  87  11  682
1477472936.881:    -51  87  11  682
1477472936.882:    -20  87  11  682
1477472936.884:     10  87  11  682
1477472936.889:     30  87  11  682
1477472936.890:     45  87  11  682
1477472936.901:     59  87  11  682
1477472936.902:     71  87  11  682
1477472936.902:     78  87  11  682
1477472936.902:     82  87  11  682
1477472936.902:     93  87  11  682
1477472936.902:    120  87  11  682
1477472936.902:    157  87  11  682
1477472936.905:    184  87  11  682
1477472936.905:    190  87  11  682
1477472936.907:    180  87  11  682
1477472936.910:    166  87  11  682
1477472936.912:    149  87  11  682
1477472936.918:    122  87  11  682
1477472936.918:     80  87  11  682
1477472936.920:     30  86  11  684
1477472936.920:    -20  86  11  684
1477472936.921:    -64  86  11  684
1477472936.923:   -101  86  11  684
1477472936.925:   -129  86  11  684
1477472936.926:   -149  86  11  684
1477472936.929:   -171  86  11  684
1477472936.930:   -211  86  11  684
1477472936.951:   -276  86  11  684
1477472936.952:   -355  86  11  684
1477472936.952:   -427  86  11  684
1477472936.952:   -480  86  11  684
1477472936.953:   -518  86  11  684
1477472936.953:   -552  86  11  684
1477472936.953:   -588  86  11  684
1477472936.954:   -622  86  11  684
1477472936.954:   -656  86  11  684
1477472936.954:   -698  86  11  684
1477472936.954:   -755  86  11  684
1477472936.955:   -822  86  11  684
1477472936.958:   -881  86  11  684
1477472936.958:   -918  86  11  684
1477472936.962:   -936  86  11  684
1477472936.962:   -947  86  11  684
1477472936.983:   -961  86  11  684
1477472936.983:   -978  86  11  684
1477472936.984:   -989  86  11  684
1477472936.984:   -994  86  11  684
1477472936.984:  -1000  86  11  684
1477472936.984:  -1012  86  11  684
1477472936.985:  -1034  86  11  684
1477472936.986:  -1062  86  11  684
1477472936.986:  -1087  86  11  684
1477472936.986:  -1096  86  11  684
1477472936.986:  -1077  86  11  684
1477472936.987:  -1033  86  11  684
1477472936.990:   -985  86  11  684
1477472936.990:   -964  86  11  684
1477472936.994:   -975  86  11  684
1477472936.994:   -995  86  11  684
1477472937.012:  -1000  86  11  684
1477472937.012:   -988  86  11  684
1477472937.012:   -981  86  11  684
1477472937.013:   -988  86  11  684
1477472937.013:   -996  86  11  684
1477472937.013:   -984  86  11  684
1477472937.013:   -956  86  11  684
1477472937.014:   -939  86  11  684
1477472937.014:   -951  86  11  684
1477472937.015:   -978  86  11  684
1477472937.017:   -997  86  11  684
1477472937.018:  -1000  86  11  684
1477472937.020:   -999  86  11  684
1477472937.021:  -1001  86  11  684
1477472937.023:   -996  86  11  684
1477472937.024:   -976  86  11  684
1477472937.034:   -948  86  11  684
1477472937.035:   -934  86  11  684
1477472937.035:   -940  86  11  684
1477472937.037:   -947  86  11  684
1477472937.038:   -937  86  11  684
1477472937.040:   -916  86  11  684
1477472937.041:   -900  86  11  684
1477472937.041:   -891  86  11  684
1477472937.045:   -871  86  11  684
1477472937.046:   -826  86  11  684
1477472937.054:   -766  86  11  684
1477472937.055:   -719  86  11  684
1477472937.055:   -704  86  11  684
1477472937.057:   -716  86  11  684
1477472937.059:   -732  86  11  684
1477472937.059:   -737  86  11  684
1477472937.060:   -730  86  11  684
1477472937.061:   -722  86  11  684
1477472937.063:   -722  86  11  684
1477472937.064:   -724  86  11  684
1477472937.066:   -716  86  11  684
1477472937.068:   -691  86  11  684
1477472937.072:   -666  86  11  684
1477472937.072:   -662  86  11  684
1477472937.092:   -687  86  11  684
1477472937.092:   -724  86  11  684
1477472937.093:   -745  86  11  684
1477472937.093:   -744  86  11  684
1477472937.093:   -733  86  11  684
1477472937.093:   -729  86  11  684
1477472937.093:   -731  86  11  684
1477472937.093:   -727  86  11  684
1477472937.094:   -714  86  11  684
1477472937.094:   -706  86  11  684
1477472937.094:   -710  86  11  684
1477472937.098:   -722  86  11  684
1477472937.099:   -728  86  11  684
1477472937.100:   -723  86  11  684
1477472937.101:   -715  86  11  684
1477472937.104:   -715  86  11  684
1477472937.105:   -721  86  11  684
1477472937.106:   -725  86  11  684
1477472937.112:   -726  86  11  684
1477472937.112:   -733  86  11  684
1477472937.114:   -751  86  11  684
1477472937.115:   -774  86  11  684
1477472937.128:   -793  86  11  684
1477472937.128:   -802  86  11  684
1477472937.129:   -801  86  11  684
1477472937.129:   -796  86  11  684
1477472937.129:   -792  86  11  684
1477472937.129:   -796  86  11  684
1477472937.131:   -818  86  11  684
1477472937.131:   -864  86  11  684
1477472937.133:   -929  86  11  684
1477472937.134:   -994  86  11  684
1477472937.140:  -1044  86  11  684
1477472937.140:  -1078  86  11  684
1477472937.146:  -1103  86  11  684
1477472937.146:  -1124  86  11  684
1477472937.146:  -1140  86  11  684
1477472937.150:  -1148  86  11  684
1477472937.150:  -1151  86  11  684
1477472937.152:  -1158  86  11  684
1477472937.153:  -1175  86  11  684
1477472937.154:  -1198  86  11  684
1477472937.164:  -1214  86  11  684
1477472937.165:  -1215  86  11  684
1477472937.165:  -1199  86  11  684
1477472937.167:  -1169  86  11  684
1477472937.167:  -1130  86  11  684
1477472937.169:  -1085  86  11  684
1477472937.170:  -1040  86  11  684
1477472937.173:  -1005  86  11  684
1477472937.174:   -991  86  11  684
1477472937.175:   -997  86  11  684
1477472937.177:  -1013  86  11  684
1477472937.182:  -1023  86  11  684
1477472937.188:  -1020  86  11  684
1477472937.189:  -1004  86  11  684
1477472937.189:   -984  86  11  684
1477472937.190:   -964  86  11  684
1477472937.191:   -942  86  11  684
1477472937.192:   -919  86  11  684
1477472937.226:   -900  86  11  684
1477472937.296:   -887  86  11  684
1477472937.306:   -884  86  11  684
1477472937.306:   -890  86  11  684
1477472937.307:   -897  86  11  684
1477472937.307:   -894  86  11  684
1477472937.307:   -884  86  11  684
1477472937.307:   -873  86  11  684
1477472937.308:   -873  86  11  684
1477472937.308:   -889  86  11  684
1477472937.308:   -918  86  11  684
1477472937.308:   -943  86  11  684
1477472937.308:   -954  86  11  684
1477472937.308:   -952  86  11  684
1477472937.308:   -950  86  11  684
1477472937.309:   -953  86  11  684
1477472937.309:   -953  86  11  684
1477472937.309:   -932  86  11  684
1477472937.309:   -891  86  11  684
1477472937.309:   -858  86  11  684
1477472937.309:   -866  86  11  684
1477472937.310:   -907  86  11  684
1477472937.310:   -941  86  11  684
1477472937.310:   -936  86  11  684
1477472937.310:   -903  86  11  684
1477472937.310:   -882  86  11  684
1477472937.311:   -887  86  11  684
1477472937.311:   -885  86  11  684
1477472937.311:   -841  86  11  684
1477472937.311:   -768  86  11  684
1477472937.311:   -722  86  11  684
1477472937.311:   -739  86  11  684
1477472937.311:   -795  86  11  684
1477472937.312:   -836  86  11  684
1477472937.312:   -843  86  11  684
1477472937.312:   -844  86  11  684
1477472937.312:   -875  86  11  684
1477472937.312:   -936  86  11  684
1477472937.312:   -994  86  11  684
1477472937.312:  -1027  86  11  684
1477472937.313:  -1044  86  11  684
1477472937.313:  -1069  86  11  684
1477472937.313:  -1111  86  11  684
1477472937.313:  -1149  86  11  684
1477472937.313:  -1164  86  11  684
1477472937.313:  -1150  86  11  684
1477472937.313:  -1116  86  11  684
1477472937.314:  -1081  86  11  684
1477472937.325:  -1052  86  11  684
1477472937.325:  -1030  86  11  684
1477472937.326:  -1019  86  11  684
1477472937.326:  -1027  86  11  684
1477472937.326:  -1058  86  11  684
1477472937.326:  -1103  86  11  684
1477472937.327:  -1140  86  11  684
1477472937.327:  -1155  86  11  684
1477472937.327:  -1152  86  11  684
1477472937.327:  -1146  86  11  684
1477472937.327:  -1148  86  11  684
1477472937.327:  -1151  86  11  684
1477472937.328:  -1143  86  11  684
1477472937.328:  -1125  86  11  684
1477472937.328:  -1103  86  11  684
1477472937.328:  -1085  86  11  684
1477472937.328:  -1067  86  11  684
1477472937.328:  -1044  86  11  684
1477472937.329:  -1010  86  11  684
1477472937.329:   -968  86  11  684
1477472937.329:   -924  86  11  684
1477472937.329:   -887  86  11  684
1477472937.332:   -872  86  11  684
1477472937.333:   -884  86  11  684
1477472937.346:   -900  86  11  684
1477472937.347:   -894  86  11  684
1477472937.347:   -850  86  11  684
1477472937.348:   -780  86  11  684
1477472937.348:   -695  86  11  684
1477472937.349:   -571  86  11  684
1477472937.349:   -373  86  11  684
1477472937.350:    -93  86  11  684
1477472937.351:    238  86  11  684
1477472937.352:    593  86  11  684
1477472937.353:    996  86  11  684
1477472937.359:   1474  86  11  684
1477472937.359:   1988  86  11  684
1477472937.360:   2439  86  11  684
1477472937.373:   2762  86  11  684
1477472937.375:   2973  86  11  684
1477472937.376:   3093  86  11  684
1477472937.376:   3041  86  11  684
1477472937.377:   2680  86  11  684
1477472937.378:   1983  86  11  684
1477472937.378:   1121  86  11  684
1477472937.379:    346  86  11  684
1477472937.391:   -237  86  11  684
1477472937.393:   -703  86  11  684
1477472937.394:  -1141  86  11  684
1477472937.395:  -1504  86  11  684
1477472937.395:  -1656  86  11  684
1477472937.396:  -1553  86  11  684
1477472937.397:  -1318  86  11  684
1477472937.397:  -1133  86  11  684
1477472937.397:  -1091  86  11  684
1477472937.398:  -1168  86  11  684
1477472937.409:  -1312  86  11  684
1477472937.410:  -1502  86  11  684
1477472937.410:  -1733  86  11  684
1477472937.410:  -1981  86  11  684
1477472937.411:  -2215  86  11  684
1477472937.411:  -2416  86  11  684
1477472937.412:  -2574  86  11  684
1477472937.412:  -2689  86  11  684
1477472937.413:  -2765  86  11  684
1477472937.417:  -2823  86  11  684
1477472937.417:  -2886  86  11  684
1477472937.453:  -2959  86  11  684
1477472937.453:  -3023  86  11  684
1477472937.460:  -3064  86  11  684
1477472937.467:  -3083  86  11  684
1477472937.467:  -3083  86  11  684
1477472937.467:  -3040  86  11  684
1477472937.467:  -2927  86  11  684
1477472937.468:  -2741  86  11  684
1477472937.468:  -2517  86  11  684
1477472937.468:  -2294  86  11  684
1477472937.468:  -2099  86  11  684
1477472937.468:  -1927  86  11  684
1477472937.468:  -1772  86  11  684
1477472937.468:  -1634  86  11  684
1477472937.468:  -1516  86  11  684
1477472937.469:  -1421  86  11  684
1477472937.469:  -1342  86  11  684
1477472937.469:  -1271  86  11  684
1477472937.469:  -1193  86  11  684
1477472937.469:  -1100  86  11  684
1477472937.469:  -1001  86  11  684
1477472937.469:   -919  86  11  684
1477472937.470:   -869  86  11  684
1477472937.470:   -845  86  11  684
1477472937.470:   -832  86  11  684
1477472937.471:   -820  86  11  684
1477472937.472:   -814  86  11  684
1477472937.474:   -817  86  11  684
1477472937.475:   -817  86  11  684
1477472937.477:   -800  86  11  684
1477472937.477:   -771  86  11  684
1477472937.478:   -750  86  11  684
1477472937.483:   -748  86  11  684
1477472937.491:   -754  86  11  684
1477472937.491:   -750  86  11  684
1477472937.491:   -729  86  11  684
1477472937.491:   -710  86  11  684
1477472937.493:   -712  86  11  684
1477472937.493:   -740  86  11  684
1477472937.495:   -777  86  11  684
1477472937.498:   -800  86  11  684
1477472937.498:   -802  86  11  684
1477472937.501:   -787  86  11  684
1477472937.511:   -763  86  11  684
1477472937.511:   -739  86  11  684
1477472937.511:   -720  86  11  684
1477472937.511:   -706  86  11  684
1477472937.512:   -702  86  11  684
1477472937.512:   -709  86  11  684
1477472937.517:   -723  86  11  684
1477472937.517:   -731  86  11  684
1477472937.521:   -727  86  11  684
1477472937.521:   -711  86  11  684
1477472937.531:   -690  86  11  684
1477472937.531:   -670  86  11  684
1477472937.531:   -645  86  11  684
1477472937.531:   -609  86  11  684
1477472937.532:   -574  86  11  684
1477472937.537:   -555  86  11  684
1477472937.537:   -557  86  11  684
1477472937.539:   -565  86  11  684
1477472937.539:   -560  86  11  684
1477472937.544:   -537  86  11  684
1477472937.544:   -507  86  11  684
1477472937.544:   -483  86  11  684
1477472937.546:   -459  86  11  684
1477472937.548:   -425  86  11  684
1477472937.570:   -384  86  11  684
1477472937.570:   -353  86  11  684
1477472937.570:   -344  86  11  684
1477472937.570:   -349  86  11  684
1477472937.570:   -349  86  11  684
1477472937.571:   -334  86  11  684
1477472937.571:   -309  86  11  684
1477472937.571:   -282  86  11  684
1477472937.571:   -258  86  11  684
1477472937.571:   -231  86  11  684
1477472937.571:   -200  86  11  684
1477472937.574:   -174  86  11  684
1477472937.575:   -162  86  11  684
1477472937.576:   -164  86  11  684
1477472937.582:   -171  86  11  684
1477472937.586:   -168  86  11  684
1477472937.594:   -151  86  11  684
1477472937.594:   -122  86  11  684
1477472937.595:    -94  86  11  684
1477472937.595:    -73  86  11  684
1477472937.595:    -64  86  11  684
1477472937.595:    -61  86  11  684
1477472937.595:    -62  86  11  684
1477472937.596:    -61  86  11  684
1477472937.597:    -61  86  11  684
1477472937.600:    -62  86  11  684
1477472937.613:    -63  86  11  683
1477472937.613:    -62  86  11  683
1477472937.614:    -58  86  11  683
1477472937.615:    -51  86  11  683
1477472937.616:    -46  86  11  683
1477472937.616:    -52  86  11  683
1477472937.617:    -82  86  11  683
1477472937.618:   -140  86  11  683
1477472937.618:   -214  86  11  683
1477472937.622:   -282  86  11  683
1477472937.630:   -331  86  11  683
1477472937.631:   -359  86  11  683
1477472937.631:   -380  86  11  683
1477472937.632:   -400  86  11  683
1477472937.633:   -414  86  11  683
1477472937.634:   -419  86  11  683
1477472937.636:   -419  86  11  683
1477472937.637:   -428  86  11  683
1477472937.647:   -453  86  11  683
1477472937.648:   -491  86  11  683
1477472937.649:   -528  86  11  683
1477472937.650:   -553  86  11  683
1477472937.651:   -569  86  11  683
1477472937.651:   -588  86  11  683
1477472937.652:   -622  86  11  683
1477472937.653:   -676  86  11  683
1477472937.654:   -745  86  11  683
1477472937.655:   -810  86  11  683
1477472937.665:   -859  86  11  683
1477472937.666:   -889  86  11  683
1477472937.667:   -909  86  11  683
1477472937.667:   -927  86  11  683
1477472937.668:   -936  86  11  683
1477472937.668:   -931  86  11  683
1477472937.669:   -911  86  11  683
1477472937.670:   -892  86  11  683
1477472937.671:   -889  86  11  683
1477472937.675:   -906  86  11  683
1477472937.682:   -932  86  11  683
1477472937.682:   -958  86  11  683
1477472937.682:   -979  86  11  683
1477472937.683:   -985  86  11  683
1477472937.684:   -969  86  11  683
1477472937.685:   -936  86  11  683
1477472937.687:   -907  86  11  683
1477472937.690:   -906  86  11  683
1477472937.694:   -938  86  11  683
1477472937.695:   -981  86  11  683
1477472937.696:  -1005  86  11  683
1477472937.697:  -1009  86  11  683
1477472937.699:  -1012  86  11  683
1477472937.704:  -1029  86  11  683
1477472937.717:  -1051  86  11  683
1477472937.718:  -1052  86  11  683
1477472937.719:  -1020  86  11  683
1477472937.720:   -971  86  11  683
1477472937.720:   -937  86  11  683
1477472937.721:   -936  86  11  683
1477472937.722:   -954  86  11  683
1477472937.722:   -969  86  11  683
1477472937.724:   -965  86  11  683
1477472937.724:   -944  86  11  683
1477472937.735:   -922  86  11  683
1477472937.735:   -911  86  11  683
1477472937.736:   -909  86  11  683
1477472937.736:   -910  86  11  683
1477472937.736:   -910  86  11  683
1477472937.738:   -918  86  11  683
1477472937.738:   -935  86  11  683
1477472937.738:   -954  86  11  683
1477472937.739:   -963  86  11  683
1477472937.739:   -956  86  11  683
1477472937.742:   -936  86  11  683
1477472937.744:   -913  86  11  683
1477472937.749:   -890  86  11  683
1477472937.749:   -869  86  11  683
1477472937.751:   -853  86  11  683
1477472937.752:   -853  86  11  683
1477472937.753:   -872  86  11  683
1477472937.755:   -900  86  11  683
1477472937.758:   -925  86  11  683
1477472937.762:   -933  86  11  683
1477472937.763:   -923  86  11  683
1477472937.765:   -901  86  11  683
1477472937.766:   -875  86  11  683
1477472937.766:   -852  86  11  683
1477472937.785:   -837  86  11  683
1477472937.787:   -837  86  11  683
1477472937.788:   -851  86  11  683
1477472937.789:   -872  86  11  683
1477472937.793:   -893  86  11  683
1477472937.793:   -913  86  11  683
1477472937.805:   -934  86  11  683
1477472937.806:   -956  86  11  683
1477472937.807:   -974  86  11  683
1477472937.808:   -980  86  11  683
1477472937.808:   -978  86  11  683
1477472937.809:   -986  86  11  683
1477472937.810:  -1015  86  11  683
1477472937.811:  -1058  86  11  683
1477472937.811:  -1091  86  11  683
1477472937.812:  -1101  86  11  683
1477472937.812:  -1094  86  11  683
1477472937.813:  -1088  86  11  683
1477472937.814:  -1090  86  11  683
1477472937.814:  -1089  86  11  683
1477472937.815:  -1076  86  11  683
1477472937.816:  -1060  86  11  683
1477472937.816:  -1061  86  11  683
1477472937.822:  -1082  86  11  683
1477472937.824:  -1106  86  11  683
1477472937.824:  -1114  86  11  683
1477472937.824:  -1105  86  11  683
1477472937.824:  -1092  86  11  683
1477472937.826:  -1084  86  11  683
1477472937.828:  -1075  86  11  683
1477472937.842:  -1061  86  11  683
1477472937.843:  -1048  86  11  683
1477472937.844:  -1045  86  11  683
1477472937.845:  -1051  86  11  683
1477472937.846:  -1055  86  11  683
1477472937.847:  -1049  86  11  683
1477472937.847:  -1037  86  11  683
1477472937.848:  -1024  86  11  683
1477472937.848:  -1007  86  11  683
1477472937.849:   -980  86  11  683
1477472937.851:   -953  86  11  683
1477472937.852:   -951  86  11  683
1477472937.862:   -990  86  11  683
1477472937.862:  -1054  86  11  683
1477472937.863:  -1114  86  11  683
1477472937.864:  -1151  86  11  683
1477472937.864:  -1176  86  11  683
1477472937.865:  -1206  86  11  683
1477472937.866:  -1238  86  11  683
1477472937.868:  -1254  86  11  683
1477472937.879:  -1245  86  11  683
1477472937.880:  -1230  86  11  683
1477472937.881:  -1229  86  11  683
1477472937.881:  -1246  86  11  683
1477472937.882:  -1263  86  11  683
1477472937.883:  -1264  86  11  683
1477472937.883:  -1252  86  11  683
1477472937.884:  -1238  86  11  683
1477472937.885:  -1226  86  11  683
1477472937.886:  -1208  86  11  683
1477472937.897:  -1179  86  11  683
1477472937.897:  -1151  86  11  683
1477472937.898:  -1143  86  11  683
1477472937.899:  -1158  86  11  683
1477472937.899:  -1181  86  11  683
1477472937.900:  -1197  86  11  683
1477472937.903:  -1203  86  11  683
1477472937.903:  -1206  86  11  683
1477472937.914:  -1201  86  11  683
1477472937.967:  -1183  86  11  683
1477472937.971:  -1151  86  11  683
1477472937.972:  -1121  86  11  683
1477472937.972:  -1107  86  11  683
1477472937.975:  -1103  86  11  683
1477472937.976:  -1088  86  11  683
1477472937.977:  -1054  86  11  683
1477472937.978:  -1011  86  11  683
1477472937.978:   -977  86  11  683
1477472937.991:   -955  86  11  683
1477472937.992:   -935  86  11  683
1477472937.992:   -911  86  11  683
1477472937.993:   -896  86  11  683
1477472937.993:   -907  86  11  683
1477472937.993:   -947  86  11  683
1477472937.994:   -997  86  11  683
1477472937.995:  -1036  86  11  683
1477472937.995:  -1054  86  11  683
1477472937.995:  -1060  86  11  683
1477472937.995:  -1063  86  11  683
1477472937.995:  -1066  86  11  683
1477472937.995:  -1057  86  11  683
1477472937.996:  -1031  86  11  683
1477472937.996:  -1005  86  11  683
1477472937.996:  -1004  86  11  683
1477472937.997:  -1043  86  11  683
1477472937.997:  -1105  86  11  683
1477472937.997:  -1153  86  11  683
1477472937.997:  -1162  86  11  683
1477472937.997:  -1142  86  11  683
1477472937.998:  -1123  86  11  683
1477472937.998:  -1124  86  11  683
1477472937.998:  -1139  86  11  683
1477472938.017:  -1146  86  11  683
1477472938.017:  -1133  86  11  683
1477472938.018:  -1105  86  11  683
1477472938.018:  -1080  86  11  683
1477472938.019:  -1075  86  11  683
1477472938.020:  -1087  86  11  683
1477472938.020:  -1096  86  11  683
1477472938.021:  -1079  86  11  683
1477472938.022:  -1038  86  11  683
1477472938.022:   -996  86  11  683
1477472938.022:   -984  86  11  683
1477472938.024:  -1007  86  11  683
1477472938.025:  -1036  86  11  683
1477472938.026:  -1042  86  11  683
1477472938.027:  -1031  86  11  683
1477472938.027:  -1026  86  11  683
1477472938.027:  -1036  86  11  683
1477472938.027:  -1043  86  11  683
1477472938.028:  -1022  86  11  683
1477472938.028:   -976  86  11  683
1477472938.029:   -936  86  11  683
1477472938.029:   -925  86  11  683
1477472938.029:   -942  86  11  683
1477472938.029:   -962  86  11  683
1477472938.030:   -969  86  11  683
1477472938.030:   -964  86  11  683
1477472938.030:   -957  86  11  683
1477472938.030:   -955  86  11  683
1477472938.031:   -949  86  11  683
1477472938.032:   -924  86  11  683
1477472938.032:   -874  86  11  683
1477472938.032:   -808  86  11  683
1477472938.036:   -740  86  11  683
1477472938.037:   -657  86  11  683
1477472938.050:   -522  86  11  683
1477472938.051:   -306  86  11  683
1477472938.052:    -18  86  11  683
1477472938.053:    321  86  11  683
1477472938.053:    714  86  11  683
1477472938.054:   1179  86  11  683
1477472938.054:   1693  86  11  683
1477472938.055:   2175  86  11  683
1477472938.071:   2539  86  11  683
1477472938.071:   2777  86  11  683
1477472938.071:   2915  86  11  683
1477472938.071:   2916  86  11  683
1477472938.072:   2664  86  11  683
1477472938.072:   2096  86  11  683
1477472938.072:   1326  86  11  683
1477472938.072:    578  86  11  683
1477472938.072:     -5  86  11  683
1477472938.072:   -465  86  11  683
1477472938.074:   -911  86  11  683
1477472938.074:  -1328  86  11  683
1477472938.076:  -1574  86  11  683
1477472938.078:  -1556  86  11  683
1477472938.079:  -1347  86  11  683
1477472938.082:  -1128  86  11  683
1477472938.092:  -1018  86  11  683
1477472938.092:  -1019  86  11  683
1477472938.092:  -1088  86  11  683
1477472938.092:  -1227  86  11  683
1477472938.092:  -1456  86  11  683
1477472938.097:  -1752  86  11  683
1477472938.097:  -2046  86  11  683
1477472938.097:  -2295  86  11  683
1477472938.100:  -2499  86  11  683
1477472938.100:  -2671  86  11  683
1477472938.106:  -2801  86  11  683
1477472938.106:  -2874  86  11  683
1477472938.121:  -2906  86  11  683
1477472938.121:  -2943  86  11  683
1477472938.121:  -3021  86  11  683
1477472938.121:  -3129  86  11  683
1477472938.121:  -3228  86  11  683
1477472938.121:  -3284  86  11  683
1477472938.122:  -3288  86  11  683
1477472938.125:  -3236  86  11  683
1477472938.125:  -3118  86  11  683
1477472938.125:  -2928  86  11  683
1477472938.127:  -2682  86  11  683
1477472938.128:  -2424  86  11  683
1477472938.134:  -2208  86  11  683
1477472938.134:  -2058  86  11  683
1477472938.143:  -1961  86  11  683
1477472938.144:  -1884  86  11  683
1477472938.144:  -1804  86  11  683
1477472938.144:  -1720  86  11  683
1477472938.145:  -1635  86  11  683
1477472938.145:  -1543  86  11  683
1477472938.147:  -1433  86  11  683
1477472938.151:  -1310  86  11  683
1477472938.163:  -1204  86  11  683
1477472938.163:  -1145  86  11  683
1477472938.163:  -1137  86  11  683
1477472938.163:  -1157  86  11  683
1477472938.164:  -1178  86  11  683
1477472938.164:  -1190  86  11  683
1477472938.165:  -1196  86  11  683
1477472938.167:  -1199  86  11  683
1477472938.167:  -1193  86  11  683
1477472938.168:  -1173  86  11  683
1477472938.170:  -1147  86  11  683
1477472938.172:  -1131  86  11  683
1477472938.183:  -1133  86  11  683
1477472938.183:  -1151  86  11  683
1477472938.183:  -1171  86  11  683
1477472938.183:  -1177  86  11  683
1477472938.184:  -1155  86  11  683
1477472938.184:  -1112  86  11  683
1477472938.185:  -1066  86  11  683
1477472938.188:  -1039  86  11  683
1477472938.192:  -1035  86  11  683
1477472938.192:  -1039  86  11  683
1477472938.194:  -1034  86  11  683
1477472938.195:  -1020  86  11  683
1477472938.229:  -1013  86  11  683
1477472938.230:  -1020  86  11  683
1477472938.239:  -1030  86  11  683
1477472938.240:  -1027  86  11  683
1477472938.240:  -1009  86  11  683
1477472938.240:   -990  86  11  683
1477472938.241:   -990  86  11  683
1477472938.242:  -1013  86  11  683
1477472938.242:  -1051  86  11  683
1477472938.242:  -1090  86  11  683
1477472938.243:  -1121  86  11  683
1477472938.243:  -1141  86  11  683
1477472938.243:  -1144  86  11  683
1477472938.243:  -1126  86  11  683
1477472938.243:  -1093  86  11  683
1477472938.244:  -1054  86  11  683
1477472938.244:  -1015  86  11  683
1477472938.244:   -977  86  11  683
1477472938.245:   -943  86  11  683
1477472938.245:   -924  86  11  683
1477472938.245:   -930  86  11  683
1477472938.245:   -953  86  11  683
1477472938.245:   -967  86  11  683
1477472938.246:   -948  86  11  683
1477472938.247:   -905  86  11  683
1477472938.248:   -860  86  11  683
1477472938.256:   -823  86  11  683
1477472938.257:   -779  86  11  683
1477472938.257:   -708  86  11  683
1477472938.257:   -616  86  11  683
1477472938.257:   -530  86  11  683
1477472938.261:   -470  86  11  683
1477472938.261:   -424  86  11  683
1477472938.262:   -371  86  11  683
1477472938.264:   -310  86  11  683
1477472938.267:   -258  86  11  683
1477472938.277:   -237  86  11  683
1477472938.277:   -246  86  11  683
1477472938.277:   -272  86  11  683
1477472938.277:   -299  86  11  683
1477472938.277:   -318  86  11  683
1477472938.277:   -328  86  11  683
1477472938.279:   -331  86  11  683
1477472938.284:   -326  86  11  683
1477472938.285:   -312  86  11  683
1477472938.289:   -288  86  11  683
1477472938.289:   -257  86  11  683
1477472938.290:   -234  86  11  688
1477472938.292:   -235  86  11  688
1477472938.293:   -259  86  11  688
1477472938.320:   -288  86  11  688
1477472938.320:   -305  86  11  688
1477472938.321:   -307  86  11  688
1477472938.321:   -308  86  11  688
1477472938.321:   -317  86  11  688
1477472938.321:   -331  86  11  688
1477472938.321:   -344  86  11  688
1477472938.322:   -358  86  11  688
1477472938.322:   -384  86  11  688
1477472938.322:   -430  86  11  688
1477472938.322:   -485  86  11  688
1477472938.323:   -538  86  11  688
1477472938.323:   -578  86  11  688
1477472938.324:   -604  86  11  688
1477472938.324:   -611  86  11  688
1477472938.326:   -602  86  11  688
1477472938.330:   -585  86  11  688
1477472938.330:   -577  86  11  688
1477472938.332:   -594  86  11  688
1477472938.333:   -627  86  11  688
1477472938.334:   -652  86  11  688
1477472938.337:   -655  86  11  688
1477472938.348:   -649  86  11  688
1477472938.348:   -654  86  11  688
1477472938.349:   -673  86  11  688
1477472938.349:   -690  86  11  688
1477472938.349:   -693  86  11  688
1477472938.349:   -693  86  11  688
1477472938.350:   -711  86  11  688
1477472938.352:   -751  86  11  688
1477472938.354:   -790  86  11  688
1477472938.357:   -811  86  11  688
1477472938.358:   -816  86  11  688
1477472938.362:   -819  86  11  688
1477472938.369:   -824  86  11  688
1477472938.369:   -818  86  11  688
1477472938.369:   -793  86  11  688
1477472938.369:   -766  86  11  688
1477472938.371:   -768  86  11  688
1477472938.372:   -815  86  11  688
1477472938.376:   -890  86  11  688
1477472938.376:   -954  86  11  688
1477472938.379:   -986  86  11  688
1477472938.380:   -990  86  11  688
1477472938.391:   -988  86  11  688
1477472938.391:   -997  86  11  688
1477472938.391:  -1009  86  11  688
1477472938.391:  -1007  86  11  688
1477472938.391:   -989  86  11  688
1477472938.391:   -974  86  11  688
1477472938.393:   -986  86  11  688
1477472938.395:  -1029  86  11  688
1477472938.398:  -1086  86  11  688
1477472938.401:  -1131  86  11  688
1477472938.410:  -1156  86  11  688
1477472938.410:  -1171  86  11  688
1477472938.410:  -1188  86  11  688
1477472938.410:  -1203  86  11  688
1477472938.410:  -1208  86  11  688
1477472938.411:  -1196  86  11  688
1477472938.414:  -1171  86  11  688
1477472938.417:  -1134  86  11  688
1477472938.418:  -1091  86  11  688
1477472938.419:  -1044  86  11  688
1477472938.429:   -997  86  11  688
1477472938.429:   -954  86  11  688
1477472938.430:   -917  86  11  688
1477472938.430:   -887  86  11  688
1477472938.435:   -870  86  11  688
1477472938.435:   -874  86  11  688
1477472938.435:   -899  86  11  688
1477472938.435:   -930  86  11  688
1477472938.437:   -954  86  11  688
1477472938.441:   -962  86  11  688
1477472938.450:   -959  86  11  688
1477472938.452:   -950  86  11  688
1477472938.453:   -937  86  11  688
1477472938.454:   -920  86  11  688
1477472938.454:   -903  86  11  688
1477472938.454:   -898  86  11  688
1477472938.455:   -915  86  11  688
1477472938.455:   -954  86  11  688
1477472938.459:   -999  86  11  688
1477472938.460:  -1027  86  11  688
1477472938.468:  -1027  86  11  688
1477472938.468:  -1007  86  11  688
1477472938.468:   -988  86  11  688
1477472938.469:   -980  86  11  688
1477472938.469:   -979  86  11  688
1477472938.471:   -975  86  11  688
1477472938.473:   -970  86  11  688
1477472938.477:   -972  86  11  688
1477472938.479:   -985  86  11  688
1477472938.480:  -1000  86  11  688
1477472938.483:  -1004  86  11  688
1477472938.485:   -997  86  11  688
1477472938.486:   -987  86  11  688
1477472938.487:   -979  86  11  688
1477472938.491:   -977  86  11  688
1477472938.491:   -991  86  11  688
1477472938.491:  -1034  86  11  688
1477472938.493:  -1103  86  11  688
1477472938.500:  -1168  86  11  688
1477472938.502:  -1204  86  11  688
1477472938.522:  -1210  86  11  688
1477472938.524:  -1211  86  11  688
1477472938.526:  -1219  86  11  688
1477472938.527:  -1217  86  11  688
1477472938.527:  -1179  86  11  688
1477472938.528:  -1113  86  11  688
1477472938.528:  -1061  86  11  688
1477472938.528:  -1051  86  11  688
1477472938.528:  -1067  86  11  688
1477472938.529:  -1074  86  11  688
1477472938.529:  -1054  86  11  688
1477472938.529:  -1025  86  11  688
1477472938.529:  -1009  86  11  688
1477472938.530:   -998  86  11  688
1477472938.530:   -973  86  11  688
1477472938.531:   -930  86  11  688
1477472938.532:   -895  86  11  688
1477472938.533:   -895  86  11  688
1477472938.534:   -922  86  11  688
1477472938.537:   -945  86  11  688
1477472938.551:   -937  86  11  688
1477472938.552:   -905  86  11  688
1477472938.552:   -875  86  11  688
1477472938.553:   -866  86  11  688
1477472938.554:   -871  86  11  688
1477472938.554:   -869  86  11  688
1477472938.554:   -851  86  11  688
1477472938.555:   -825  86  11  688
1477472938.556:   -809  86  11  688
1477472938.558:   -808  86  11  688
1477472938.559:   -811  86  11  688
1477472938.565:   -802  86  11  688
1477472938.576:   -775  86  11  688
1477472938.577:   -734  86  11  688
1477472938.578:   -691  86  11  688
1477472938.579:   -654  86  11  688
1477472938.579:   -626  86  11  688
1477472938.580:   -610  86  11  688
1477472938.581:   -603  86  11  688
1477472938.582:   -597  86  11  688
1477472938.583:   -585  86  11  688
1477472938.583:   -566  86  11  688
1477472938.595:   -549  86  11  688
1477472938.662:   -540  86  11  688
1477472938.665:   -539  86  11  688
1477472938.665:   -540  86  11  688
1477472938.665:   -542  86  11  688
1477472938.665:   -553  86  11  688
1477472938.666:   -574  86  11  688
1477472938.666:   -597  86  11  688
1477472938.666:   -611  86  11  688
1477472938.666:   -607  86  11  688
1477472938.667:   -585  86  11  688
1477472938.667:   -556  86  11  688
1477472938.667:   -531  86  11  688
1477472938.667:   -514  86  11  688
1477472938.667:   -509  86  11  688
1477472938.667:   -517  86  11  688
1477472938.667:   -534  86  11  688
1477472938.668:   -552  86  11  688
1477472938.668:   -562  86  11  688
1477472938.668:   -559  86  11  688
1477472938.668:   -546  86  11  688
1477472938.668:   -523  86  11  688
1477472938.668:   -496  86  11  688
1477472938.669:   -464  86  11  688
1477472938.669:   -432  86  11  688
1477472938.669:   -416  86  11  688
1477472938.669:   -421  86  11  688
1477472938.670:   -439  86  11  688
1477472938.670:   -454  86  11  688
1477472938.670:   -456  86  11  688
1477472938.670:   -449  86  11  688
1477472938.670:   -441  86  11  688
1477472938.670:   -443  86  11  688
1477472938.671:   -457  86  11  688
1477472938.671:   -491  86  11  688
1477472938.671:   -551  86  11  688
1477472938.671:   -635  86  11  688
1477472938.671:   -732  86  11  688
1477472938.672:   -829  86  11  688
1477472938.672:   -920  86  11  688
1477472938.672:  -1000  86  11  688
1477472938.672:  -1055  86  11  688
1477472938.672:  -1080  86  11  688
1477472938.673:  -1079  86  11  688
1477472938.673:  -1066  86  11  688
1477472938.673:  -1056  86  11  688
1477472938.673:  -1046  86  11  688
1477472938.679:  -1025  86  11  688
1477472938.687:   -994  86  11  688
1477472938.687:   -968  86  11  688
1477472938.688:   -957  86  11  688
1477472938.688:   -956  86  11  688
1477472938.688:   -951  86  11  688
1477472938.688:   -932  86  11  688
1477472938.692:   -907  86  11  688
1477472938.693:   -887  86  11  688
1477472938.693:   -877  86  11  688
1477472938.694:   -867  86  11  688
1477472938.695:   -856  86  11  688
1477472938.699:   -845  86  11  688
1477472938.709:   -835  86  11  688
1477472938.727:   -816  86  11  688
1477472938.728:   -777  86  11  688
1477472938.729:   -723  86  11  688
1477472938.731:   -680  86  11  688
1477472938.733:   -666  86  11  688
1477472938.733:   -673  86  11  688
1477472938.733:   -672  86  11  688
1477472938.734:   -651  86  11  688
1477472938.734:   -621  86  11  688
1477472938.734:   -589  86  11  688
1477472938.734:   -542  86  11  688
1477472938.735:   -458  86  11  688
1477472938.735:   -341  86  11  688
1477472938.735:   -213  86  11  688
1477472938.735:    -81  86  11  688
1477472938.738:     82  86  11  688
1477472938.738:    300  86  11  688
1477472938.742:    568  86  11  688
1477472938.743:    873  86  11  688
1477472938.743:   1233  86  11  688
1477472938.743:   1671  86  11  688
1477472938.747:   2153  86  11  688
1477472938.747:   2588  86  11  688
1477472938.748:   2902  86  11  688
1477472938.751:   3100  86  11  688
1477472938.770:   3198  86  11  688
1477472938.771:   3133  86  11  688
1477472938.772:   2787  86  11  688
1477472938.775:   2137  86  11  688
1477472938.775:   1350  86  11  688
1477472938.776:    658  86  11  688
1477472938.776:    163  86  11  688
1477472938.777:   -209  86  11  688
1477472938.778:   -550  86  11  688
1477472938.779:   -828  86  11  688
1477472938.792:   -933  86  11  688
1477472938.792:   -834  86  11  688
1477472938.792:   -634  86  11  688
1477472938.792:   -475  86  11  688
1477472938.792:   -427  86  11  688
1477472938.792:   -479  86  11  688
1477472938.792:   -611  86  11  688
1477472938.793:   -821  86  11  688
1477472938.793:  -1083  86  11  688
1477472938.793:  -1341  86  11  688
1477472938.793:  -1559  86  11  688
1477472938.796:  -1756  86  11  688
1477472938.796:  -1953  86  11  688
1477472938.797:  -2129  86  11  688
1477472938.805:  -2235  86  11  688
1477472938.806:  -2259  86  11  688
1477472938.817:  -2256  86  11  688
1477472938.818:  -2299  86  11  688
1477472938.818:  -2405  86  11  688
1477472938.818:  -2538  86  11  688
1477472938.818:  -2657  86  11  688
1477472938.819:  -2750  86  11  688
1477472938.819:  -2817  86  11  688
1477472938.819:  -2837  86  11  688
1477472938.820:  -2786  86  11  688
1477472938.821:  -2651  86  11  688
1477472938.822:  -2452  86  11  688
1477472938.824:  -2227  86  11  688
1477472938.825:  -2012  86  11  688
1477472938.828:  -1835  86  11  688
1477472938.844:  -1708  86  11  688
1477472938.845:  -1620  86  11  688
1477472938.846:  -1543  86  11  688
1477472938.846:  -1456  86  11  688
1477472938.847:  -1362  86  11  688
1477472938.848:  -1274  86  11  688
1477472938.849:  -1195  86  11  688
1477472938.850:  -1108  86  11  688
1477472938.850:  -1005  86  11  688
1477472938.851:   -902  86  11  688
1477472938.852:   -834  86  11  688
1477472938.852:   -818  86  11  688
1477472938.864:   -839  86  11  688
1477472938.864:   -868  86  11  688
1477472938.865:   -885  86  11  688
1477472938.866:   -885  86  11  688
1477472938.867:   -870  86  11  688
1477472938.868:   -844  86  11  688
1477472938.868:   -819  86  11  688
1477472938.869:   -809  86  11  688
1477472938.871:   -816  86  11  688
1477472938.871:   -826  86  11  688
1477472938.875:   -820  86  11  688
1477472938.875:   -798  86  11  688
1477472938.876:   -775  86  11  688
1477472938.878:   -756  86  11  688
1477472938.880:   -733  86  11  688
1477472938.883:   -691  86  11  688
1477472938.899:   -636  86  11  688
1477472938.900:   -581  86  11  688
1477472938.900:   -537  86  11  688
1477472938.901:   -509  86  11  688
1477472938.901:   -493  86  11  688
1477472938.901:   -488  86  11  688
1477472938.902:   -491  86  11  688
1477472938.902:   -491  86  11  688
1477472938.904:   -479  86  11  688
1477472938.905:   -456  86  11  688
1477472938.905:   -431  86  11  688
1477472938.907:   -418  86  11  688
1477472938.909:   -416  86  11  688
1477472938.910:   -424  86  11  688
1477472938.919:   -446  86  11  688
1477472938.920:   -475  86  11  688
1477472938.920:   -498  86  11  688
1477472938.920:   -506  86  11  688
1477472938.922:   -501  86  11  688
1477472938.925:   -494  86  11  688
1477472938.926:   -488  86  11  688
1477472938.930:   -467  86  11  688
1477472938.930:   -422  86  11  688
1477472938.930:   -375  86  11  688
1477472938.931:   -366  86  11  688
1477472938.934:   -405  86  11  688
1477472938.944:   -454  86  11  688
1477472938.945:   -470  86  11  688
1477472938.945:   -448  86  11  688
1477472938.945:   -429  86  11  688
1477472938.946:   -443  86  11  688
1477472938.947:   -466  86  11  688
1477472938.948:   -450  86  11  688
1477472938.949:   -383  86  11  688
1477472938.950:   -313  86  11  688
1477472938.954:   -289  86  11  688
1477472938.965:   -308  86  11  688
1477472938.966:   -315  86  11  688
1477472938.966:   -269  86  11  688
1477472938.967:   -181  86  11  688
1477472938.967:    -98  86  11  688
1477472938.967:    -51  86  11  688
1477472938.967:    -27  86  11  688
1477472938.969:      1  86  11  688
1477472938.970:     39  86  11  688
1477472938.974:     66  86  11  688
1477472938.974:     64  86  11  688
1477472938.977:     35  86  11  688
1477472938.986:      6  86  11  688
1477472938.986:     -1  86  11  688
1477472938.986:     15  87  11  688
1477472938.987:     37  87  11  688
1477472938.989:     50  87  11  688
1477472938.989:     49  87  11  688
1477472938.992:     34  87  11  688
1477472938.992:      9  87  11  688
1477472938.997:    -21  87  11  688
1477472938.998:    -51  87  11  688
1477472939.007:    -81  87  11  688
1477472939.007:   -116  87  11  688
1477472939.007:   -163  87  11  688
1477472939.008:   -217  87  11  688
1477472939.008:   -258  87  11  688
1477472939.009:   -274  87  11  688
1477472939.012:   -287  87  11  688
1477472939.013:   -329  87  11  688
1477472939.020:   -407  87  11  688
1477472939.021:   -487  87  11  688
1477472939.021:   -526  87  11  688
1477472939.023:   -521  87  11  688
1477472939.027:   -508  87  11  688
1477472939.028:   -525  87  11  688
1477472939.041:   -568  87  11  688
1477472939.042:   -606  87  11  688
1477472939.042:   -624  87  11  688
1477472939.042:   -643  87  11  688
1477472939.042:   -685  87  11  688
1477472939.042:   -747  87  11  688
1477472939.042:   -799  87  11  688
1477472939.042:   -819  87  11  688
1477472939.043:   -815  87  11  688
1477472939.045:   -816  87  11  688
1477472939.046:   -832  87  11  688
1477472939.049:   -852  87  11  688
1477472939.054:   -864  87  11  688
1477472939.054:   -879  87  11  688
1477472939.087:   -912  87  11  688
1477472939.088:   -964  87  11  688
1477472939.088:  -1009  87  11  688
1477472939.088:  -1025  87  11  688
1477472939.088:  -1017  87  11  688
1477472939.089:  -1014  87  11  688
1477472939.089:  -1032  87  11  688
1477472939.089:  -1057  87  11  688
1477472939.089:  -1072  87  11  688
1477472939.089:  -1082  87  11  688
1477472939.090:  -1104  87  11  688
1477472939.090:  -1144  87  11  688
1477472939.090:  -1186  87  11  688
1477472939.090:  -1210  87  11  688
1477472939.091:  -1215  87  11  688
1477472939.091:  -1211  87  11  688
1477472939.091:  -1203  87  11  688
1477472939.091:  -1182  87  11  688
1477472939.091:  -1150  87  11  688
1477472939.095:  -1130  87  11  688
1477472939.095:  -1141  87  11  688
1477472939.095:  -1172  87  11  688
1477472939.100:  -1202  87  11  688
1477472939.104:  -1222  87  11  688
1477472939.105:  -1240  87  11  688
1477472939.105:  -1261  87  11  688
1477472939.108:  -1274  87  11  688
1477472939.108:  -1266  87  11  688
1477472939.120:  -1249  87  11  688
1477472939.120:  -1250  87  11  688
1477472939.120:  -1275  87  11  688
1477472939.120:  -1298  87  11  688
1477472939.120:  -1296  87  11  688
1477472939.122:  -1266  87  11  688
1477472939.122:  -1226  87  11  688
1477472939.126:  -1190  87  11  688
1477472939.126:  -1166  87  11  688
1477472939.128:  -1153  87  11  688
1477472939.130:  -1146  87  11  688
1477472939.131:  -1139  87  11  688
1477472939.141:  -1130  87  11  688
1477472939.142:  -1128  87  11  688
1477472939.143:  -1150  87  11  688
1477472939.144:  -1196  87  11  688
1477472939.146:  -1234  87  11  688
1477472939.147:  -1225  87  11  688
1477472939.147:  -1166  87  11  688
1477472939.149:  -1097  87  11  688
1477472939.149:  -1051  87  11  688
1477472939.151:  -1032  87  11  688
1477472939.152:  -1021  87  11  688
1477472939.153:  -1006  87  11  688
1477472939.155:   -998  87  11  688
1477472939.158:  -1007  87  11  688
1477472939.174:  -1023  87  11  688
1477472939.174:  -1026  87  11  688
1477472939.174:  -1008  87  11  688
1477472939.174:   -981  87  11  688
1477472939.174:   -964  87  11  688
1477472939.175:   -963  87  11  688
1477472939.175:   -972  87  11  688
1477472939.176:   -974  87  11  688
1477472939.176:   -962  87  11  688
1477472939.178:   -945  87  11  688
1477472939.188:   -934  87  11  688
1477472939.188:   -929  87  11  688
1477472939.189:   -914  87  11  688
1477472939.189:   -876  87  11  688
1477472939.190:   -824  87  11  688
1477472939.190:   -785  87  11  688
1477472939.191:   -779  87  11  688
1477472939.192:   -800  87  11  688
1477472939.194:   -823  87  11  688
1477472939.196:   -838  87  11  688
1477472939.199:   -857  87  11  688
1477472939.236:   -891  87  11  688
1477472939.244:   -929  87  11  688
1477472939.244:   -955  87  11  688
1477472939.244:   -962  87  11  688
1477472939.244:   -962  87  11  688
1477472939.244:   -974  87  11  688
1477472939.245:  -1001  87  11  688
1477472939.245:  -1031  87  11  688
1477472939.246:  -1045  87  11  688
1477472939.247:  -1039  87  11  688
1477472939.247:  -1019  87  11  688
1477472939.247:   -997  87  11  688
1477472939.247:   -981  87  11  688
1477472939.248:   -968  87  11  688
1477472939.248:   -945  87  11  688
1477472939.248:   -914  87  11  688
1477472939.248:   -890  87  11  688
1477472939.248:   -884  87  11  688
1477472939.249:   -887  87  11  688
1477472939.250:   -881  87  11  688
1477472939.250:   -857  87  11  688
1477472939.250:   -835  87  11  688
1477472939.250:   -839  87  11  688
1477472939.252:   -866  87  11  688
1477472939.252:   -886  87  11  688
1477472939.265:   -881  87  11  688
1477472939.265:   -871  87  11  688
1477472939.265:   -883  87  11  688
1477472939.265:   -910  87  11  688
1477472939.265:   -907  87  11  688
1477472939.265:   -841  87  11  688
1477472939.266:   -734  87  11  688
1477472939.266:   -646  87  11  688
1477472939.266:   -608  87  11  688
1477472939.266:   -599  87  11  688
1477472939.269:   -581  87  11  688
1477472939.272:   -554  87  11  688
1477472939.273:   -552  87  11  688
1477472939.277:   -596  87  11  688
1477472939.288:   -666  87  11  688
1477472939.348:   -723  87  11  688
1477472939.359:   -745  87  11  688
1477472939.359:   -734  87  11  688
1477472939.359:   -702  87  11  688
1477472939.359:   -649  87  11  688
1477472939.360:   -584  87  11  688
1477472939.360:   -527  87  11  688
1477472939.360:   -494  87  11  688
1477472939.360:   -471  87  11  688
1477472939.360:   -432  87  11  688
1477472939.360:   -370  87  11  688
1477472939.360:   -309  87  11  688
1477472939.361:   -276  87  11  688
1477472939.361:   -269  87  11  688
1477472939.361:   -259  87  11  688
1477472939.361:   -231  87  11  688
1477472939.361:   -202  87  11  688
1477472939.361:   -197  87  11  688
1477472939.361:   -223  87  11  688
1477472939.362:   -257  87  11  688
1477472939.362:   -279  87  11  688
1477472939.362:   -286  87  11  688
1477472939.362:   -290  87  11  688
1477472939.362:   -299  87  11  688
1477472939.362:   -308  87  11  688
1477472939.362:   -316  87  11  688
1477472939.362:   -333  87  11  688
1477472939.363:   -373  87  11  688
1477472939.363:   -432  87  11  688
1477472939.363:   -493  87  11  688
1477472939.363:   -538  87  11  688
1477472939.363:   -565  87  11  688
1477472939.363:   -586  87  11  688
1477472939.363:   -607  87  11  688
1477472939.364:   -620  87  11  688
1477472939.364:   -612  87  11  688
1477472939.364:   -589  87  11  688
1477472939.364:   -579  87  11  688
1477472939.364:   -596  87  11  688
1477472939.364:   -628  87  11  688
1477472939.364:   -646  87  11  688
1477472939.366:   -634  87  11  688
1477472939.366:   -607  87  11  688
1477472939.367:   -592  87  11  688
1477472939.367:   -601  87  11  688
1477472939.367:   -622  87  11  688
1477472939.373:   -642  87  11  688
1477472939.373:   -661  87  11  688
1477472939.374:   -687  87  11  688
1477472939.376:   -716  87  11  688
1477472939.381:   -742  87  11  688
1477472939.381:   -758  87  11  688
1477472939.381:   -758  87  11  688
1477472939.387:   -736  87  11  688
1477472939.388:   -690  87  11  688
1477472939.388:   -629  87  11  688
1477472939.389:   -580  87  11  688
1477472939.392:   -568  87  11  688
1477472939.393:   -587  87  11  688
1477472939.420:   -609  87  11  688
1477472939.420:   -620  87  11  688
1477472939.420:   -629  87  11  688
1477472939.421:   -644  87  11  688
1477472939.421:   -641  87  11  688
1477472939.421:   -593  87  11  688
1477472939.421:   -500  87  11  688
1477472939.421:   -400  87  11  688
1477472939.422:   -313  87  11  688
1477472939.422:   -197  87  11  688
1477472939.422:      4  87  11  688
1477472939.422:    290  87  11  688
1477472939.422:    606  87  11  688
1477472939.422:    924  87  11  688
1477472939.423:   1288  87  11  688
1477472939.427:   1742  87  11  688
1477472939.428:   2235  87  11  688
1477472939.429:   2644  87  11  688
1477472939.430:   2890  87  11  688
1477472939.433:   2998  87  11  688
1477472939.434:   3007  87  11  688
1477472939.436:   2858  87  11  688
1477472939.441:   2442  87  11  688
1477472939.441:   1769  87  11  688
1477472939.474:   1021  87  11  688
1477472939.474:    410  87  11  688
1477472939.475:     -9  87  11  688
1477472939.475:   -343  87  11  688
1477472939.475:   -671  87  11  688
1477472939.476:   -933  87  11  688
1477472939.476:  -1005  87  11  688
1477472939.477:   -869  87  11  688
1477472939.478:   -648  87  11  688
1477472939.478:   -494  87  11  688
1477472939.478:   -464  87  11  688
1477472939.478:   -534  87  11  688
1477472939.479:   -667  87  11  688
1477472939.479:   -858  87  11  688
1477472939.480:  -1102  87  11  688
1477472939.480:  -1365  87  11  688
1477472939.480:  -1610  87  11  688
1477472939.481:  -1821  87  11  688
1477472939.481:  -1998  87  11  688
1477472939.481:  -2134  87  11  688
1477472939.483:  -2215  87  11  688
1477472939.484:  -2246  87  11  688
1477472939.502:  -2269  87  11  688
1477472939.502:  -2324  87  11  688
1477472939.503:  -2423  87  11  688
1477472939.503:  -2544  87  11  688
1477472939.503:  -2649  87  11  688
1477472939.504:  -2716  87  11  688
1477472939.504:  -2744  87  11  688
1477472939.504:  -2730  87  11  688
1477472939.504:  -2661  87  11  688
1477472939.504:  -2515  87  11  688
1477472939.505:  -2301  87  11  688
1477472939.507:  -2064  87  11  688
1477472939.509:  -1869  87  11  688
1477472939.511:  -1751  87  11  688
1477472939.514:  -1689  87  11  688
1477472939.515:  -1627  87  11  688
1477472939.516:  -1526  87  11  688
1477472939.519:  -1396  87  11  688
1477472939.525:  -1271  87  11  688
1477472939.525:  -1175  87  11  688
1477472939.541:  -1098  87  11  688
1477472939.542:  -1012  87  11  688
1477472939.543:   -912  87  11  688
1477472939.544:   -829  87  11  688
1477472939.544:   -798  87  11  688
1477472939.545:   -821  87  11  688
1477472939.546:   -864  87  11  688
1477472939.546:   -886  87  11  688
1477472939.547:   -875  87  11  688
1477472939.548:   -844  87  11  688
1477472939.550:   -812  87  11  688
1477472939.550:   -780  87  11  688
1477472939.551:   -744  87  11  688
1477472939.551:   -713  87  11  688
1477472939.562:   -705  87  11  688
1477472939.563:   -724  87  11  688
1477472939.563:   -746  87  11  688
1477472939.564:   -745  87  11  688
1477472939.564:   -717  87  11  688
1477472939.565:   -681  87  11  688
1477472939.565:   -658  87  11  688
1477472939.567:   -648  87  11  688
1477472939.569:   -633  87  11  688
1477472939.569:   -607  87  11  688
1477472939.573:   -585  87  11  688
1477472939.575:   -582  87  11  688
1477472939.584:   -599  87  11  688
1477472939.584:   -613  87  11  688
1477472939.584:   -607  87  11  688
1477472939.584:   -581  87  11  688
1477472939.584:   -553  87  11  688
1477472939.586:   -532  87  11  688
1477472939.588:   -515  87  11  688
1477472939.593:   -492  87  11  688
1477472939.593:   -472  87  11  688
1477472939.594:   -467  87  11  688
1477472939.605:   -482  87  11  688
1477472939.605:   -503  87  11  688
1477472939.605:   -509  87  11  688
1477472939.605:   -496  87  11  688
1477472939.607:   -479  87  11  688
1477472939.607:   -473  87  11  688
1477472939.608:   -469  87  11  688
1477472939.609:   -453  87  11  688
1477472939.611:   -426  87  11  688
1477472939.613:   -403  87  11  688
1477472939.616:   -397  87  11  688
1477472939.621:   -402  87  11  688
1477472939.627:   -397  87  11  688
1477472939.627:   -368  87  11  688
1477472939.627:   -322  87  11  688
1477472939.627:   -275  87  11  688
1477472939.627:   -240  87  11  688
1477472939.630:   -220  87  11  688
1477472939.634:   -212  87  11  688
1477472939.634:   -208  87  11  688
1477472939.636:   -194  87  11  688
1477472939.637:   -171  87  11  688
1477472939.646:   -147  87  11  688
1477472939.647:   -131  87  11  688
1477472939.652:   -116  87  11  688
1477472939.653:    -90  87  11  688
1477472939.654:    -51  87  11  688
1477472939.655:    -16  87  11  688
1477472939.677:     -9  87  11  688
1477472939.678:    -36  87  11  688
1477472939.679:    -73  87  11  688
1477472939.679:    -99  87  11  688
1477472939.680:   -111  87  11  688
1477472939.681:   -118  87  11  688
1477472939.681:   -127  87  11  688
1477472939.682:   -135  87  11  688
1477472939.683:   -136  87  11  688
1477472939.683:   -133  87  11  688
1477472939.684:   -137  87  11  688
1477472939.685:   -155  87  11  688
1477472939.685:   -183  87  11  688
1477472939.687:   -213  87  11  689
1477472939.687:   -241  87  11  689
1477472939.687:   -270  87  11  689
1477472939.688:   -295  87  11  689
1477472939.688:   -305  87  11  689
1477472939.688:   -300  87  11  689
1477472939.688:   -293  87  11  689
1477472939.689:   -306  87  11  689
1477472939.694:   -349  87  11  689
1477472939.694:   -403  87  11  689
1477472939.695:   -440  87  11  689
1477472939.698:   -457  87  11  689
1477472939.699:   -471  87  11  689
1477472939.722:   -501  87  11  689
1477472939.723:   -538  87  11  689
1477472939.723:   -564  87  11  689
1477472939.723:   -571  87  11  689
1477472939.723:   -578  87  11  689
1477472939.723:   -605  87  11  689
1477472939.724:   -656  87  11  689
1477472939.724:   -708  87  11  689
1477472939.724:   -745  87  11  689
1477472939.724:   -763  87  11  689
1477472939.725:   -769  87  11  689
1477472939.727:   -764  87  11  689
1477472939.727:   -747  87  11  689
1477472939.729:   -723  87  11  689
1477472939.730:   -707  87  11  689
1477472939.732:   -718  87  11  689
1477472939.735:   -757  87  11  689
1477472939.735:   -806  87  11  689
1477472939.740:   -840  87  11  689
1477472939.741:   -854  87  11  689
1477472939.743:   -859  87  11  689
1477472939.745:   -865  87  11  689
1477472939.746:   -869  87  11  689
1477472939.748:   -855  87  11  689
1477472939.764:   -818  87  11  689
1477472939.765:   -783  87  11  689
1477472939.766:   -782  87  11  689
1477472939.767:   -815  87  11  689
1477472939.767:   -855  87  11  689
1477472939.768:   -875  87  11  689
1477472939.769:   -878  87  11  689
1477472939.770:   -886  87  11  689
1477472939.770:   -908  87  11  689
1477472939.771:   -924  87  11  689
1477472939.771:   -910  87  11  689
1477472939.772:   -877  87  11  689
1477472939.800:   -853  87  11  689
1477472939.800:   -853  87  11  689
1477472939.801:   -860  87  11  689
1477472939.801:   -848  87  11  689
1477472939.801:   -811  87  11  689
1477472939.801:   -767  87  11  689
1477472939.802:   -731  87  11  689
1477472939.802:   -707  87  11  689
1477472939.802:   -690  87  11  689
1477472939.802:   -676  87  11  689
1477472939.803:   -667  87  11  689
1477472939.803:   -661  87  11  689
1477472939.803:   -660  87  11  689
1477472939.803:   -671  87  11  689
1477472939.805:   -693  87  11  689
1477472939.809:   -711  87  11  689
1477472939.809:   -706  87  11  689
1477472939.810:   -678  87  11  689
1477472939.810:   -645  87  11  689
1477472939.813:   -633  87  11  689
1477472939.813:   -649  87  11  689
1477472939.815:   -674  87  11  689
1477472939.817:   -686  87  11  689
1477472939.818:   -679  87  11  689
1477472939.820:   -661  87  11  689
1477472939.822:   -643  87  11  689
1477472939.832:   -627  87  11  689
1477472939.833:   -611  87  11  689
1477472939.833:   -599  87  11  689
1477472939.833:   -596  87  11  689
1477472939.833:   -605  87  11  689
1477472939.833:   -620  87  11  689
1477472939.834:   -629  87  11  689
1477472939.840:   -631  87  11  689
1477472939.841:   -632  87  11  689
1477472939.842:   -639  87  11  689
1477472939.843:   -647  87  11  689
1477472939.849:   -646  87  11  689
1477472939.863:   -629  87  11  689
1477472939.864:   -608  87  11  689
1477472939.864:   -606  87  11  689
1477472939.864:   -637  87  11  689
1477472939.864:   -689  87  11  689
1477472939.865:   -736  87  11  689
1477472939.865:   -760  87  11  689
1477472939.865:   -766  87  11  689
1477472939.865:   -767  87  11  689
1477472939.866:   -774  87  11  689
1477472939.868:   -779  87  11  689
1477472939.869:   -772  87  11  689
1477472939.870:   -759  87  11  689
1477472939.872:   -759  87  11  689
1477472939.876:   -785  87  11  689
1477472939.876:   -828  87  11  689
1477472939.891:   -866  87  11  689
1477472939.891:   -879  87  11  689
1477472939.891:   -875  87  11  689
1477472939.891:   -867  87  11  689
1477472939.891:   -863  87  11  689
1477472939.891:   -858  87  11  689
1477472939.891:   -847  87  11  689
1477472939.895:   -835  87  11  689
1477472939.896:   -826  87  11  689
1477472939.897:   -817  87  11  689
1477472939.898:   -798  87  11  689
1477472939.900:   -765  87  11  689
1477472939.904:   -722  87  11  689
1477472939.904:   -675  87  11  689
1477472939.914:   -632  87  11  689
1477472939.915:   -596  87  11  689
1477472939.915:   -577  87  11  689
1477472939.915:   -581  87  11  689
1477472939.915:   -601  87  11  689
1477472939.920:   -621  87  11  689
1477472939.921:   -636  87  11  689
1477472939.924:   -653  87  11  689
1477472939.925:   -673  87  11  689
1477472939.928:   -684  87  11  689
1477472939.929:   -676  87  11  689
1477472939.930:   -653  87  11  689
1477472939.931:   -647  87  11  689
1477472939.935:   -675  87  11  689
1477472939.960:   -725  87  11  689
1477472939.960:   -766  87  11  689
1477472939.961:   -782  87  11  689
1477472939.961:   -788  87  11  689
1477472939.961:   -802  87  11  689
1477472939.961:   -817  87  11  689
1477472939.962:   -810  87  11  689
1477472939.962:   -772  87  11  689
1477472939.962:   -728  87  11  689
1477472939.962:   -710  87  11  689
1477472939.963:   -724  87  11  689
1477472939.963:   -750  87  11  689
1477472939.963:   -768  87  11  689
1477472939.963:   -773  87  11  689
1477472939.963:   -774  87  11  689
1477472939.965:   -774  87  11  689
1477472939.969:   -775  87  11  689
1477472939.969:   -776  87  11  689
1477472939.972:   -782  87  11  689
1477472939.974:   -792  87  11  689
1477472939.975:   -801  87  11  689
1477472939.978:   -803  87  11  689
1477472939.979:   -802  87  11  689
1477472939.981:   -803  87  11  689
1477472939.982:   -799  87  11  689
1477472940.007:   -780  87  11  689
1477472940.081:   -744  87  11  689
1477472940.081:   -703  87  11  689
1477472940.081:   -670  87  11  689
1477472940.081:   -651  87  11  689
1477472940.081:   -645  87  11  689
1477472940.081:   -647  87  11  689
1477472940.082:   -654  87  11  689
1477472940.082:   -662  87  11  689
1477472940.082:   -663  87  11  689
1477472940.083:   -652  87  11  689
1477472940.083:   -637  87  11  689
1477472940.083:   -631  87  11  689
1477472940.083:   -640  87  11  689
1477472940.083:   -660  87  11  689
1477472940.083:   -691  87  11  689
1477472940.083:   -731  87  11  689
1477472940.084:   -778  87  11  689
1477472940.084:   -830  87  11  689
1477472940.084:   -881  87  11  689
1477472940.084:   -921  87  11  689
1477472940.084:   -940  87  11  689
1477472940.084:   -937  87  11  689
1477472940.085:   -921  87  11  689
1477472940.085:   -908  87  11  689
1477472940.085:   -911  87  11  689
1477472940.085:   -926  87  11  689
1477472940.085:   -936  87  11  689
1477472940.085:   -933  87  11  689
1477472940.085:   -917  87  11  689
1477472940.086:   -897  87  11  689
1477472940.086:   -878  87  11  689
1477472940.086:   -858  87  11  689
1477472940.086:   -840  87  11  689
1477472940.086:   -830  87  11  689
1477472940.086:   -836  87  11  689
1477472940.087:   -854  87  11  689
1477472940.087:   -874  87  11  689
1477472940.087:   -892  87  11  689
1477472940.087:   -915  87  11  689
1477472940.087:   -942  87  11  689
1477472940.087:   -962  87  11  689
1477472940.087:   -961  87  11  689
1477472940.088:   -940  87  11  689
1477472940.088:   -918  87  11  689
1477472940.088:   -917  87  11  689
1477472940.088:   -934  87  11  689
1477472940.088:   -948  87  11  689
1477472940.088:   -947  87  11  689
1477472940.089:   -935  87  11  689
1477472940.089:   -921  87  11  689
1477472940.089:   -911  87  11  689
1477472940.089:   -902  87  11  689
1477472940.089:   -885  87  11  689
1477472940.089:   -852  87  11  689
1477472940.090:   -806  87  11  689
1477472940.091:   -750  87  11  689
1477472940.096:   -689  87  11  689
1477472940.097:   -606  87  11  689
1477472940.099:   -468  87  11  689
1477472940.100:   -248  87  11  689
1477472940.104:     48  87  11  689
1477472940.105:    393  87  11  689
1477472940.120:    780  87  11  689
1477472940.120:   1231  87  11  689
1477472940.120:   1735  87  11  689
1477472940.120:   2213  87  11  689
1477472940.120:   2580  87  11  689
1477472940.120:   2819  87  11  689
1477472940.121:   2965  87  11  689
1477472940.121:   2999  87  11  689
1477472940.121:   2794  87  11  689
1477472940.122:   2250  87  11  689
1477472940.125:   1445  87  11  689
1477472940.127:    622  87  11  689
1477472940.132:    -34  87  11  689
1477472940.132:   -541  87  11  689
1477472940.143:  -1028  87  11  689
1477472940.143:  -1513  87  11  689
1477472940.143:  -1850  87  11  689
1477472940.144:  -1908  87  11  689
1477472940.144:  -1738  87  11  689
1477472940.144:  -1531  87  11  689
1477472940.145:  -1433  87  11  689
1477472940.147:  -1449  87  11  689
1477472940.154:  -1531  87  11  689
1477472940.154:  -1679  87  11  689
1477472940.154:  -1922  87  11  689
1477472940.155:  -2243  87  11  689
1477472940.160:  -2558  87  11  689
1477472940.160:  -2806  87  11  689
1477472940.162:  -2990  87  11  689
1477472940.164:  -3147  87  11  689
1477472940.175:  -3295  87  11  689
1477472940.177:  -3409  87  11  689
1477472940.178:  -3477  87  11  689
1477472940.178:  -3525  87  11  689
1477472940.179:  -3591  87  11  689
1477472940.179:  -3691  87  11  689
1477472940.179:  -3808  87  11  689
1477472940.180:  -3907  87  11  689
1477472940.180:  -3952  87  11  689
1477472940.183:  -3918  87  11  689
1477472940.184:  -3797  87  11  689
1477472940.188:  -3607  87  11  689
1477472940.200:  -3382  87  11  689
1477472940.200:  -3157  87  11  689
1477472940.200:  -2957  87  11  689
1477472940.201:  -2796  87  11  689
1477472940.201:  -2678  87  11  689
1477472940.201:  -2589  87  11  689
1477472940.201:  -2514  87  11  689
1477472940.201:  -2435  87  11  689
1477472940.206:  -2355  87  11  689
1477472940.206:  -2281  87  11  689
1477472940.239:  -2217  87  11  689
1477472940.242:  -2162  87  11  689
1477472940.256:  -2115  87  11  689
1477472940.257:  -2080  87  11  689
1477472940.257:  -2071  87  11  689
1477472940.257:  -2100  87  11  689
1477472940.257:  -2163  87  11  689
1477472940.257:  -2230  87  11  689
1477472940.257:  -2263  87  11  689
1477472940.257:  -2249  87  11  689
1477472940.258:  -2210  87  11  689
1477472940.258:  -2187  87  11  689
1477472940.258:  -2198  87  11  689
1477472940.258:  -2218  87  11  689
1477472940.258:  -2215  87  11  689
1477472940.258:  -2188  87  11  689
1477472940.258:  -2169  87  11  689
1477472940.259:  -2172  87  11  689
1477472940.259:  -2174  87  11  689
1477472940.259:  -2147  87  11  689
1477472940.259:  -2097  87  11  689
1477472940.259:  -2068  87  11  689
1477472940.259:  -2086  87  11  689
1477472940.260:  -2130  87  11  689
1477472940.260:  -2157  87  11  689
1477472940.260:  -2153  87  11  689
1477472940.260:  -2143  87  11  689
1477472940.261:  -2148  87  11  689
1477472940.262:  -2154  87  11  689
1477472940.267:  -2135  87  11  689
1477472940.267:  -2088  87  11  689
1477472940.270:  -2042  87  11  689
1477472940.271:  -2030  87  11  689
1477472940.274:  -2048  87  11  689
1477472940.274:  -2066  87  11  689
1477472940.276:  -2068  87  11  689
1477472940.293:  -2066  87  11  689
1477472940.293:  -2080  87  11  689
1477472940.293:  -2105  87  11  689
1477472940.293:  -2115  87  11  689
1477472940.293:  -2087  87  11  689
1477472940.293:  -2033  87  11  689
1477472940.295:  -1987  87  11  689
1477472940.296:  -1968  87  11  689
1477472940.296:  -1957  87  11  689
1477472940.296:  -1927  87  11  689
1477472940.297:  -1872  87  11  689
1477472940.302:  -1820  87  11  689
1477472940.317:  -1789  87  11  689
1477472940.318:  -1770  87  11  689
1477472940.318:  -1741  87  11  689
1477472940.318:  -1701  87  11  689
1477472940.318:  -1678  87  11  689
1477472940.318:  -1693  87  11  689
1477472940.318:  -1725  87  11  689
1477472940.318:  -1741  87  11  689
1477472940.319:  -1732  87  11  689
1477472940.320:  -1715  87  11  689
1477472940.321:  -1705  87  11  689
1477472940.322:  -1689  87  11  689
1477472940.329:  -1646  87  11  689
1477472940.329:  -1587  87  11  689
1477472940.330:  -1554  87  11  689
1477472940.331:  -1568  87  11  689
1477472940.334:  -1605  87  11  689
1477472940.335:  -1621  87  11  689
1477472940.337:  -1607  87  11  689
1477472940.339:  -1587  87  11  689
1477472940.355:  -1587  87  11  689
1477472940.355:  -1596  87  11  689
1477472940.355:  -1581  87  11  689
1477472940.356:  -1530  87  11  689
1477472940.356:  -1472  87  11  689
1477472940.356:  -1449  87  11  689
1477472940.357:  -1474  87  11  689
1477472940.357:  -1522  87  11  689
1477472940.358:  -1561  87  11  689
1477472940.360:  -1584  87  11  690
1477472940.361:  -1601  87  11  690
1477472940.362:  -1622  87  11  690
1477472940.365:  -1649  87  11  690
1477472940.366:  -1673  87  11  690
1477472940.396:  -1687  87  11  690
1477472940.396:  -1698  87  11  690
1477472940.396:  -1718  87  11  690
1477472940.396:  -1750  87  11  690
1477472940.396:  -1790  87  11  690
1477472940.397:  -1825  87  11  690
1477472940.397:  -1846  87  11  690
1477472940.397:  -1857  87  11  690
1477472940.397:  -1867  87  11  690
1477472940.397:  -1882  87  11  690
1477472940.397:  -1907  87  11  690
1477472940.397:  -1939  87  11  690
1477472940.397:  -1980  87  11  690
1477472940.398:  -2024  87  11  690
1477472940.398:  -2067  87  11  690
1477472940.400:  -2103  87  11  690
1477472940.400:  -2132  87  11  690
1477472940.401:  -2156  87  11  690
1477472940.405:  -2177  87  11  690
1477472940.406:  -2192  87  11  690
1477472940.419:  -2202  87  11  690
1477472940.419:  -2218  87  11  690
1477472940.420:  -2259  87  11  690
1477472940.420:  -2322  87  11  690
1477472940.420:  -2382  87  11  690
1477472940.420:  -2416  87  11  690
1477472940.420:  -2422  87  11  690
1477472940.421:  -2416  87  11  690
1477472940.424:  -2418  87  11  690
1477472940.425:  -2423  87  11  690
1477472940.429:  -2418  87  11  690
1477472940.430:  -2401  87  11  690
1477472940.431:  -2390  87  11  690
1477472940.434:  -2398  87  11  690
1477472940.440:  -2421  87  11  690
1477472940.440:  -2440  87  11  690
1477472940.440:  -2447  87  11  690
1477472940.442:  -2447  87  11  690
1477472940.443:  -2452  87  11  690
1477472940.448:  -2461  87  11  690
1477472940.448:  -2463  87  11  690
1477472940.452:  -2454  87  11  690
1477472940.469:  -2444  87  11  690
1477472940.469:  -2446  87  11  690
1477472940.469:  -2457  87  11  690
1477472940.469:  -2464  87  11  690
1477472940.469:  -2447  87  11  690
1477472940.470:  -2399  87  11  690
1477472940.470:  -2330  87  11  690
1477472940.470:  -2257  87  11  690
1477472940.470:  -2190  87  11  690
1477472940.470:  -2134  87  11  690
1477472940.471:  -2088  87  11  690
1477472940.473:  -2054  87  11  690
1477472940.476:  -2034  87  11  690
1477472940.479:  -2028  87  11  690
1477472940.480:  -2030  87  11  690
1477472940.481:  -2026  87  11  690
1477472940.492:  -2014  87  11  690
1477472940.493:  -2001  87  11  690
1477472940.493:  -1992  87  11  690
1477472940.493:  -1988  87  11  690
1477472940.493:  -1983  87  11  690
1477472940.493:  -1982  87  11  690
1477472940.494:  -1988  87  11  690
1477472940.499:  -2000  87  11  690
1477472940.499:  -2006  87  11  690
1477472940.501:  -1995  87  11  690
1477472940.503:  -1970  87  11  690
1477472940.508:  -1944  87  11  690
1477472940.509:  -1927  87  11  690
1477472940.509:  -1916  87  11  690
1477472940.510:  -1908  87  11  690
1477472940.511:  -1906  87  11  690
1477472940.514:  -1916  87  11  690
1477472940.517:  -1939  87  11  690
1477472940.521:  -1968  87  11  690
1477472940.521:  -1989  87  11  690
1477472940.531:  -1993  87  11  690
1477472940.531:  -1980  87  11  690
1477472940.531:  -1954  87  11  690
1477472940.532:  -1919  87  11  690
1477472940.532:  -1885  87  11  690
1477472940.536:  -1860  87  11  690
1477472940.536:  -1845  87  11  690
1477472940.537:  -1829  87  11  690
1477472940.539:  -1803  87  11  690
1477472940.539:  -1768  87  11  690
1477472940.550:  -1731  87  11  690
1477472940.550:  -1701  87  11  690
1477472940.551:  -1679  87  11  690
1477472940.551:  -1662  87  11  690
1477472940.551:  -1651  87  11  690
1477472940.553:  -1654  87  11  690
1477472940.554:  -1676  87  11  690
1477472940.555:  -1707  87  11  690
1477472940.559:  -1729  87  11  690
1477472940.562:  -1731  87  11  690
1477472940.562:  -1712  87  11  690
1477472940.564:  -1688  87  11  690
1477472940.567:  -1668  87  11  690
1477472940.567:  -1653  87  11  690
1477472940.582:  -1638  87  11  690
1477472940.582:  -1625  87  11  690
1477472940.582:  -1624  87  11  690
1477472940.582:  -1633  87  11  690
1477472940.582:  -1645  87  11  690
1477472940.583:  -1647  87  11  690
1477472940.583:  -1639  87  11  690
1477472940.583:  -1627  87  11  690
1477472940.586:  -1613  87  11  690
1477472940.590:  -1587  87  11  690
1477472940.591:  -1547  87  11  690
1477472940.593:  -1510  87  11  690
1477472940.594:  -1501  87  11  690
1477472940.595:  -1522  87  11  690
1477472940.609:  -1548  87  11  690
1477472940.610:  -1550  87  11  690
1477472940.611:  -1529  87  11  690
1477472940.611:  -1506  87  11  690
1477472940.612:  -1497  87  11  690
1477472940.613:  -1492  87  11  690
1477472940.614:  -1477  87  11  690
1477472940.614:  -1457  87  11  690
1477472940.615:  -1455  87  11  690
1477472940.618:  -1477  87  11  690
1477472940.618:  -1506  87  11  690
1477472940.619:  -1518  87  11  690
1477472940.620:  -1513  87  11  690
1477472940.621:  -1505  87  11  690
1477472940.625:  -1502  87  11  690
1477472940.626:  -1497  87  11  690
1477472940.631:  -1485  87  11  690
1477472940.631:  -1475  87  11  690
1477472940.635:  -1487  87  11  690
1477472940.635:  -1518  87  11  690
1477472940.635:  -1548  87  11  690
1477472940.637:  -1560  87  11  690
1477472940.650:  -1562  87  11  690
1477472940.650:  -1572  87  11  690
1477472940.650:  -1592  87  11  690
1477472940.650:  -1607  87  11  690
1477472940.650:  -1603  87  11  690
1477472940.651:  -1595  87  11  690
1477472940.652:  -1607  87  11  690
1477472940.654:  -1640  87  11  690
1477472940.656:  -1664  87  11  690
1477472940.658:  -1654  87  11  690
1477472940.659:  -1614  87  11  690
1477472940.737:  -1569  87  11  690
1477472940.746:  -1530  87  11  690
1477472940.747:  -1484  87  11  690
1477472940.747:  -1410  87  11  690
1477472940.749:  -1322  87  11  690
1477472940.749:  -1253  87  11  690
1477472940.749:  -1223  87  11  690
1477472940.750:  -1214  87  11  690
1477472940.750:  -1199  87  11  690
1477472940.751:  -1169  87  11  690
1477472940.751:  -1136  87  11  690
1477472940.752:  -1110  87  11  690
1477472940.752:  -1088  87  11  690
1477472940.753:  -1058  87  11  690
1477472940.753:  -1030  87  11  690
1477472940.758:  -1027  87  11  690
1477472940.758:  -1058  87  11  690
1477472940.758:  -1104  87  11  690
1477472940.759:  -1136  87  11  690
1477472940.759:  -1140  87  11  690
1477472940.759:  -1132  87  11  690
1477472940.784:  -1137  87  11  690
1477472940.784:  -1165  87  11  690
1477472940.784:  -1202  87  11  690
1477472940.785:  -1232  87  11  690
1477472940.785:  -1256  87  11  690
1477472940.785:  -1292  87  11  690
1477472940.785:  -1350  87  11  690
1477472940.786:  -1421  87  11  690
1477472940.786:  -1481  87  11  690
1477472940.787:  -1514  87  11  690
1477472940.787:  -1525  87  11  690
1477472940.787:  -1531  87  11  690
1477472940.788:  -1540  87  11  690
1477472940.788:  -1548  87  11  690
1477472940.788:  -1555  87  11  690
1477472940.788:  -1566  87  11  690
1477472940.789:  -1591  87  11  690
1477472940.790:  -1629  87  11  690
1477472940.790:  -1672  87  11  690
1477472940.793:  -1707  87  11  690
1477472940.794:  -1730  87  11  690
1477472940.794:  -1739  87  11  690
1477472940.794:  -1739  87  11  690
1477472940.794:  -1737  87  11  690
1477472940.794:  -1745  87  11  690
1477472940.795:  -1771  87  11  690
1477472940.810:  -1809  87  11  690
1477472940.810:  -1852  87  11  690
1477472940.810:  -1892  87  11  690
1477472940.811:  -1926  87  11  690
1477472940.811:  -1951  87  11  690
1477472940.812:  -1963  87  11  690
1477472940.813:  -1967  87  11  690
1477472940.813:  -1970  87  11  690
1477472940.814:  -1977  87  11  690
1477472940.814:  -1982  87  11  690
1477472940.815:  -1978  87  11  690
1477472940.815:  -1968  87  11  690
1477472940.816:  -1957  87  11  690
1477472940.816:  -1934  87  11  690
1477472940.817:  -1881  87  11  690
1477472940.817:  -1786  87  11  690
1477472940.817:  -1663  87  11  690
1477472940.818:  -1518  87  11  690
1477472940.818:  -1340  87  11  690
1477472940.818:  -1110  87  11  690
1477472940.819:   -830  87  11  690
1477472940.819:   -512  87  11  690
1477472940.819:   -150  87  11  690
1477472940.819:    288  87  11  690
1477472940.820:    803  87  11  690
1477472940.820:   1319  87  11  690
1477472940.820:   1742  87  11  690
1477472940.820:   2041  87  11  690
1477472940.820:   2244  87  11  690
1477472940.821:   2333  87  11  690
1477472940.822:   2189  87  11  690
1477472940.822:   1703  87  11  690
1477472940.822:    936  87  11  690
1477472940.822:    116  87  11  690
1477472940.824:   -555  87  11  690
1477472940.825:  -1054  87  11  690
1477472940.827:  -1496  87  11  690
1477472940.828:  -1925  87  11  690
1477472940.829:  -2244  87  11  690
1477472940.830:  -2334  87  11  690
1477472940.833:  -2209  87  11  690
1477472940.834:  -2014  87  11  690
1477472940.835:  -1897  87  11  690
1477472940.841:  -1907  87  11  690
1477472940.850:  -2017  87  11  690
1477472940.850:  -2189  87  11  690
1477472940.850:  -2410  87  11  690
1477472940.850:  -2664  87  11  690
1477472940.850:  -2930  87  11  690
1477472940.850:  -3202  87  11  690
1477472940.855:  -3483  87  11  690
1477472940.855:  -3746  87  11  690
1477472940.857:  -3945  87  11  690
1477472940.860:  -4051  87  11  690
1477472940.860:  -4088  87  11  690
1477472940.861:  -4118  87  11  690
1477472940.871:  -4179  87  11  690
1477472940.871:  -4258  87  11  690
1477472940.872:  -4317  87  11  690
1477472940.877:  -4339  87  11  690
1477472940.880:  -4335  87  11  690
1477472940.880:  -4307  87  11  690
1477472940.882:  -4235  87  11  690
1477472940.883:  -4094  87  11  690
1477472940.885:  -3884  87  11  690
1477472940.885:  -3640  87  11  690
1477472940.886:  -3413  87  11  690
1477472940.887:  -3228  87  11  690
1477472940.887:  -3081  87  11  690
1477472940.889:  -2953  87  11  690
1477472940.893:  -2845  87  11  690
1477472940.893:  -2766  87  11  690
1477472940.903:  -2720  87  11  690
1477472940.903:  -2688  87  11  690
1477472940.903:  -2634  87  11  690
1477472940.904:  -2541  87  11  690
1477472940.920:  -2425  87  11  690
1477472940.921:  -2323  87  11  690
1477472940.921:  -2262  87  11  690
1477472940.921:  -2236  87  11  690
1477472940.925:  -2223  87  11  690
1477472940.926:  -2203  87  11  690
1477472940.926:  -2173  87  11  690
1477472940.927:  -2141  87  11  690
1477472940.927:  -2111  87  11  690
1477472940.928:  -2073  87  11  690
1477472940.928:  -2018  87  11  690
1477472940.928:  -1950  87  11  690
1477472940.929:  -1886  87  11  690
1477472940.930:  -1839  87  11  690
1477472940.930:  -1813  87  11  690
1477472940.935:  -1803  87  11  690
1477472940.943:  -1800  87  11  690
1477472940.943:  -1797  87  11  690
1477472940.943:  -1788  87  11  690
1477472940.944:  -1770  87  11  690
1477472940.944:  -1746  87  11  690
1477472940.946:  -1718  87  11  690
1477472940.947:  -1681  87  11  690
1477472940.954:  -1627  87  11  690
1477472940.954:  -1561  87  11  690
1477472940.954:  -1501  87  11  690
1477472940.955:  -1464  87  11  690
1477472940.955:  -1444  87  11  690
1477472940.958:  -1417  87  11  690
1477472940.961:  -1364  87  11  690
1477472940.965:  -1292  87  11  690
1477472940.965:  -1226  87  11  690
1477472940.969:  -1184  87  11  690
1477472940.970:  -1163  87  11  690
1477472940.982:  -1151  87  11  690
1477472940.982:  -1142  87  11  690
1477472940.982:  -1138  87  11  690
1477472940.982:  -1141  87  11  690
1477472940.983:  -1142  87  11  690
1477472940.983:  -1129  87  11  690
1477472940.983:  -1096  87  11  690
1477472940.983:  -1045  87  11  690
1477472940.987:   -983  87  11  690
1477472940.987:   -918  87  11  690
1477472940.993:   -861  87  11  690
1477472940.993:   -825  87  11  690
1477472940.994:   -811  87  11  690
1477472940.995:   -806  87  11  690
1477472941.007:   -795  87  11  690
1477472941.007:   -771  87  11  690
1477472941.007:   -741  87  11  690
1477472941.007:   -708  87  11  690
1477472941.007:   -671  87  11  690
1477472941.008:   -624  87  11  690
1477472941.009:   -572  87  11  690
1477472941.010:   -532  87  11  690
1477472941.013:   -510  87  11  690
1477472941.014:   -494  87  11  690
1477472941.020:   -464  87  11  690
1477472941.020:   -414  87  11  690
1477472941.021:   -359  87  11  690
1477472941.023:   -319  87  11  690
1477472941.024:   -300  87  11  690
1477472941.028:   -287  87  11  690
1477472941.029:   -265  87  11  690
1477472941.033:   -237  87  11  690
1477472941.034:   -223  87  11  690
1477472941.035:   -232  87  11  690
1477472941.038:   -254  87  11  690
1477472941.039:   -267  87  11  690
1477472941.042:   -260  87  11  690
1477472941.043:   -235  87  11  689
1477472941.047:   -208  87  11  689
1477472941.048:   -188  87  11  689
1477472941.064:   -175  87  11  689
1477472941.064:   -170  87  11  689
1477472941.064:   -176  87  11  689
1477472941.065:   -195  87  11  689
1477472941.065:   -220  87  11  689
1477472941.065:   -240  87  11  689
1477472941.065:   -247  87  11  689
1477472941.065:   -245  87  11  689
1477472941.066:   -247  87  11  689
1477472941.067:   -258  87  11  689
1477472941.068:   -278  87  11  689
1477472941.070:   -305  87  11  689
1477472941.075:   -347  87  11  689
1477472941.075:   -400  87  11  689
1477472941.077:   -449  87  11  689
1477472941.080:   -480  87  11  689
1477472941.089:   -489  87  11  689
1477472941.089:   -493  87  11  689
1477472941.089:   -503  87  11  689
1477472941.089:   -515  87  11  689
1477472941.090:   -509  87  11  689
1477472941.090:   -482  87  11  689
1477472941.094:   -459  87  11  689
1477472941.094:   -470  87  11  689
1477472941.095:   -513  87  11  689
1477472941.097:   -559  87  11  689
1477472941.103:   -576  87  11  689
1477472941.103:   -562  87  11  689
1477472941.105:   -537  87  11  689
1477472941.105:   -518  87  11  689
1477472941.108:   -507  87  11  689
1477472941.110:   -498  87  11  689
1477472941.111:   -490  87  11  689
1477472941.116:   -493  87  11  689
1477472941.128:   -509  87  11  689
1477472941.129:   -534  87  11  689
1477472941.129:   -556  87  11  689
1477472941.130:   -567  87  11  689
1477472941.132:   -562  87  11  689
1477472941.132:   -551  87  11  689
1477472941.133:   -546  87  11  689
1477472941.133:   -559  87  11  689
1477472941.134:   -588  87  11  689
1477472941.134:   -623  87  11  689
1477472941.135:   -651  87  11  689
1477472941.137:   -672  87  11  689
1477472941.149:   -694  87  11  689
1477472941.149:   -718  87  11  689
1477472941.149:   -732  87  11  689
1477472941.150:   -726  87  11  689
1477472941.150:   -704  87  11  689
1477472941.150:   -681  87  11  689
1477472941.150:   -663  87  11  689
1477472941.151:   -649  87  11  689
1477472941.154:   -630  87  11  689
1477472941.157:   -606  87  11  689
1477472941.158:   -583  87  11  689
1477472941.161:   -561  87  11  689
1477472941.163:   -528  87  11  689
1477472941.166:   -478  87  11  689
1477472941.167:   -421  87  11  689
1477472941.168:   -377  87  11  689
1477472941.170:   -362  87  11  689
1477472941.171:   -375  87  11  689
1477472941.176:   -399  87  11  689
1477472941.177:   -415  87  11  689
1477472941.189:   -418  87  11  689
1477472941.190:   -413  87  11  689
1477472941.190:   -409  87  11  689
1477472941.190:   -407  87  11  689
1477472941.190:   -401  87  11  689
1477472941.190:   -383  87  11  689
1477472941.192:   -358  87  11  689
1477472941.193:   -347  87  11  689
1477472941.194:   -362  87  11  689
1477472941.195:   -393  87  11  689
1477472941.196:   -414  87  11  689
1477472941.203:   -409  87  11  689
1477472941.217:   -390  87  11  689
1477472941.217:   -377  87  11  689
1477472941.218:   -372  87  11  689
1477472941.218:   -361  87  11  689
1477472941.218:   -337  87  11  689
1477472941.218:   -317  87  11  689
1477472941.246:   -323  87  11  689
1477472941.246:   -353  87  11  689
1477472941.246:   -384  87  11  689
1477472941.246:   -393  87  11  689
1477472941.246:   -386  87  11  689
1477472941.247:   -385  87  11  689
1477472941.247:   -405  87  11  689
1477472941.247:   -434  87  11  689
1477472941.249:   -458  87  11  689
1477472941.251:   -476  87  11  689
1477472941.253:   -506  87  11  689
1477472941.254:   -551  87  11  689
1477472941.254:   -597  87  11  689
1477472941.254:   -625  87  11  689
1477472941.254:   -632  87  11  689
1477472941.255:   -632  87  11  689
1477472941.255:   -630  87  11  689
1477472941.255:   -614  87  11  689
1477472941.255:   -575  87  11  689
1477472941.255:   -534  87  11  689
1477472941.258:   -525  87  11  689
1477472941.259:   -556  87  11  689
1477472941.260:   -593  87  11  689
1477472941.261:   -598  87  11  689
1477472941.287:   -572  87  11  689
1477472941.288:   -550  87  11  689
1477472941.291:   -553  87  11  689
1477472941.291:   -564  87  11  689
1477472941.292:   -547  87  11  689
1477472941.292:   -507  87  11  689
1477472941.292:   -482  87  11  689
1477472941.292:   -493  87  11  689
1477472941.293:   -516  87  11  689
1477472941.293:   -513  87  11  689
1477472941.293:   -477  87  11  689
1477472941.293:   -439  87  11  689
1477472941.294:   -426  87  11  689
1477472941.294:   -429  87  11  689
1477472941.294:   -421  87  11  689
1477472941.294:   -397  87  11  689
1477472941.294:   -375  87  11  689
1477472941.296:   -370  87  11  689
1477472941.298:   -380  87  11  689
1477472941.299:   -391  87  11  689
1477472941.302:   -400  87  11  689
1477472941.302:   -407  87  11  689
1477472941.317:   -403  87  11  689
1477472941.317:   -381  87  11  689
1477472941.317:   -348  87  11  689
1477472941.318:   -334  87  11  689
1477472941.318:   -358  87  11  689
1477472941.318:   -407  87  11  689
1477472941.318:   -445  87  11  689
1477472941.318:   -448  87  11  689
1477472941.321:   -429  87  11  689
1477472941.321:   -411  87  11  689
1477472941.323:   -400  87  11  689
1477472941.325:   -379  87  11  689
1477472941.326:   -336  87  11  689
1477472941.331:   -284  87  11  689
1477472941.342:   -257  87  11  689
1477472941.342:   -266  87  11  689
1477472941.403:   -292  87  11  689
1477472941.403:   -302  87  11  689
1477472941.403:   -287  87  11  689
1477472941.403:   -263  87  11  689
1477472941.403:   -249  87  11  689
1477472941.404:   -248  87  11  689
1477472941.404:   -244  87  11  689
1477472941.404:   -227  87  11  689
1477472941.404:   -200  87  11  689
1477472941.404:   -178  87  11  689
1477472941.405:   -166  87  11  689
1477472941.405:   -161  87  11  689
1477472941.405:   -155  87  11  689
1477472941.405:   -143  87  11  689
1477472941.406:   -120  87  11  689
1477472941.408:    -88  87  11  689
1477472941.409:    -52  87  11  689
1477472941.409:    -32  87  11  689
1477472941.409:    -43  87  11  689
1477472941.409:    -87  87  11  689
1477472941.428:   -137  87  11  689
1477472941.428:   -170  87  11  689
1477472941.428:   -182  87  11  689
1477472941.429:   -188  87  11  689
1477472941.429:   -197  87  11  689
1477472941.429:   -198  87  11  689
1477472941.429:   -180  87  11  689
1477472941.429:   -148  87  11  689
1477472941.429:   -126  87  11  689
1477472941.429:   -134  87  11  689
1477472941.430:   -165  87  11  689
1477472941.430:   -200  87  11  689
1477472941.430:   -225  87  11  689
1477472941.430:   -243  87  11  689
1477472941.430:   -257  87  11  689
1477472941.430:   -268  87  11  689
1477472941.430:   -278  87  11  689
1477472941.431:   -293  87  11  689
1477472941.431:   -319  87  11  689
1477472941.431:   -357  87  11  689
1477472941.431:   -398  87  11  689
1477472941.431:   -433  87  11  689
1477472941.431:   -464  87  11  689
1477472941.431:   -495  87  11  689
1477472941.432:   -525  87  11  689
1477472941.432:   -544  87  11  689
1477472941.432:   -546  87  11  689
1477472941.432:   -529  87  11  689
1477472941.432:   -502  87  11  689
1477472941.433:   -481  87  11  689
1477472941.436:   -475  87  11  689
1477472941.436:   -480  87  11  689
1477472941.438:   -481  87  11  689
1477472941.439:   -466  87  11  689
1477472941.441:   -436  87  11  689
1477472941.443:   -407  87  11  689
1477472941.445:   -392  87  11  689
1477472941.450:   -388  87  11  689
1477472941.482:   -385  87  11  689
1477472941.482:   -378  87  11  689
1477472941.483:   -377  87  11  689
1477472941.483:   -391  87  11  689
1477472941.483:   -417  87  11  689
1477472941.484:   -438  87  11  689
1477472941.484:   -438  87  11  689
1477472941.484:   -415  87  11  689
1477472941.484:   -378  87  11  689
1477472941.485:   -330  87  11  689
1477472941.485:   -274  87  11  689
1477472941.485:   -211  87  11  689
1477472941.486:   -148  87  11  689
1477472941.486:    -69  87  11  689
1477472941.486:     56  87  11  689
1477472941.487:    252  87  11  689
1477472941.487:    511  87  11  689
1477472941.487:    808  87  11  689
1477472941.488:   1150  87  11  689
1477472941.488:   1578  87  11  689
1477472941.491:   2103  87  11  689
1477472941.491:   2646  87  11  689
1477472941.493:   3092  87  11  689
1477472941.494:   3387  87  11  689
1477472941.495:   3566  87  11  689
1477472941.497:   3646  87  11  689
1477472941.500:   3543  87  11  689
1477472941.501:   3137  87  11  689
1477472941.513:   2442  87  11  689
1477472941.513:   1647  87  11  689
1477472941.513:    973  87  11  689
1477472941.513:    476  87  11  689
1477472941.514:     58  87  11  689
1477472941.514:   -353  87  11  689
1477472941.515:   -680  87  11  689
1477472941.517:   -784  87  11  689
1477472941.519:   -636  87  11  689
1477472941.524:   -365  87  11  689
1477472941.526:   -146  87  11  689
1477472941.528:    -65  87  11  689
1477472941.529:   -108  87  11  689
1477472941.530:   -231  87  11  689
1477472941.541:   -413  87  11  689
1477472941.541:   -639  87  11  689
1477472941.541:   -884  87  11  689
1477472941.546:  -1123  87  11  689
1477472941.547:  -1344  87  11  689
1477472941.547:  -1525  87  11  689
1477472941.547:  -1641  87  11  689
1477472941.547:  -1679  87  11  689
1477472941.547:  -1668  87  11  689
1477472941.551:  -1673  87  11  689
1477472941.561:  -1731  87  11  689
1477472941.562:  -1825  87  11  689
1477472941.562:  -1915  87  11  689
1477472941.562:  -1979  87  11  689
1477472941.562:  -2015  87  11  689
1477472941.562:  -2016  87  11  689
1477472941.565:  -1945  87  11  689
1477472941.565:  -1773  87  11  689
1477472941.567:  -1519  87  11  689
1477472941.568:  -1249  87  11  689
1477472941.574:  -1028  87  11  689
1477472941.574:   -868  87  11  689
1477472941.582:   -740  87  11  689
1477472941.582:   -614  87  11  689
1477472941.582:   -490  87  11  689
1477472941.582:   -385  87  11  689
1477472941.582:   -306  87  11  689
1477472941.584:   -240  87  11  689
1477472941.587:   -163  87  11  689
1477472941.588:    -70  87  11  689
1477472941.593:     26  87  11  689
1477472941.594:     95  87  11  689
1477472941.595:    115  87  11  689
1477472941.596:     90  87  11  689
1477472941.599:     51  87  11  689
1477472941.599:     38  87  11  689
1477472941.602:     67  87  11  689
1477472941.607:    118  87  11  689
1477472941.608:    160  87  11  689
1477472941.610:    186  87  11  689
1477472941.622:    208  87  11  689
1477472941.623:    236  87  11  689
1477472941.624:    255  87  11  689
1477472941.624:    249  87  11  689
1477472941.625:    219  87  11  689
1477472941.626:    189  87  11  689
1477472941.627:    181  87  11  689
1477472941.627:    191  87  11  689
1477472941.628:    201  87  11  689
1477472941.628:    199  87  11  689
1477472941.629:    191  87  11  689
1477472941.633:    180  87  11  689
1477472941.634:    164  87  11  689
1477472941.635:    142  87  11  689
1477472941.645:    124  87  11  689
1477472941.645:    123  87  11  689
1477472941.646:    142  87  11  689
1477472941.646:    166  87  11  689
1477472941.646:    184  87  11  689
1477472941.647:    196  87  11  689
1477472941.651:    209  87  11  689
1477472941.651:    224  87  11  689
1477472941.655:    234  87  11  689
1477472941.655:    236  87  11  689
1477472941.657:    238  87  11  689
1477472941.661:    251  87  11  689
1477472941.662:    280  87  11  689
1477472941.665:    321  87  11  689
1477472941.665:    365  87  11  689
1477472941.668:    406  87  11  689
1477472941.668:    445  87  11  689
1477472941.671:    477  87  11  689
1477472941.674:    496  87  11  689
1477472941.675:    504  87  11  689
1477472941.678:    500  87  11  689
1477472941.679:    495  87  11  689
1477472941.695:    499  87  11  689
1477472941.695:    521  87  11  689
1477472941.696:    562  87  11  689
1477472941.696:    614  87  11  689
1477472941.696:    660  87  11  689
1477472941.696:    686  87  11  689
1477472941.696:    692  87  11  689
1477472941.697:    697  87  11  689
1477472941.697:    716  87  11  689
1477472941.701:    745  87  11  689
1477472941.701:    765  87  11  689
1477472941.703:    766  87  11  689
1477472941.704:    766  87  11  689
1477472941.706:    792  87  11  689
1477472941.708:    846  87  11  689
1477472941.710:    893  87  11  689
1477472941.719:    891  87  11  689
1477472941.719:    842  87  11  689
1477472941.719:    794  87  11  689
1477472941.720:    785  87  11  689
1477472941.720:    807  87  11  689
1477472941.722:    820  87  11  689
1477472941.724:    800  87  11  689
1477472941.725:    767  87  11  689
1477472941.728:    759  87  11  689
1477472941.729:    788  87  11  689
1477472941.734:    820  87  11  689
1477472941.735:    818  87  11  688
1477472941.736:    786  87  11  688
1477472941.737:    757  87  11  688
1477472941.739:    761  87  11  688
1477472941.747:    787  87  11  688
1477472941.747:    800  87  11  688
1477472941.747:    780  87  11  688
1477472941.748:    748  87  11  688
1477472941.752:    733  87  11  688
1477472941.752:    736  87  11  688
1477472941.754:    720  87  11  688
1477472941.755:    658  87  11  688
1477472941.757:    570  87  11  688
1477472941.761:    509  87  11  688
1477472941.761:    504  87  11  688
1477472941.779:    529  87  11  688
1477472941.780:    531  87  11  688
1477472941.781:    494  87  11  688
1477472941.782:    445  87  11  688
1477472941.782:    415  87  11  688
1477472941.783:    403  87  11  688
1477472941.784:    383  87  11  688
1477472941.784:    341  87  11  688
1477472941.785:    291  87  11  688
1477472941.786:    259  87  11  688
1477472941.786:    253  87  11  688
1477472941.787:    255  87  11  688
1477472941.801:    251  87  11  688
1477472941.801:    239  87  11  688
1477472941.802:    218  87  11  688
1477472941.802:    178  87  11  688
1477472941.802:    109  87  11  688
1477472941.802:     22  87  11  688
1477472941.802:    -57  87  11  688
1477472941.803:   -107  87  11  688
1477472941.803:   -130  87  11  688
1477472941.804:   -147  87  11  688
1477472941.807:   -173  87  11  688
1477472941.811:   -203  87  11  688
1477472941.811:   -221  87  11  688
1477472941.813:   -222  87  11  688
1477472941.814:   -216  87  11  688
1477472941.817:   -216  87  11  688
1477472941.832:   -227  87  11  688
1477472941.833:   -244  87  11  688
1477472941.833:   -257  87  11  688
1477472941.834:   -261  87  11  688
1477472941.834:   -254  87  11  688
1477472941.835:   -239  87  11  688
1477472941.835:   -226  87  11  688
1477472941.835:   -231  87  11  688
1477472941.836:   -260  87  11  688
1477472941.838:   -300  87  11  688
1477472941.839:   -327  87  11  688
1477472941.840:   -325  87  11  688
1477472941.842:   -306  87  11  688
1477472941.846:   -295  87  11  688
1477472941.847:   -303  87  11  688
1477472941.847:   -317  87  11  688
1477472941.862:   -316  87  11  688
1477472941.863:   -303  87  11  688
1477472941.863:   -297  87  11  688
1477472941.863:   -311  87  11  688
1477472941.863:   -329  87  11  688
1477472941.864:   -326  87  11  688
1477472941.864:   -294  87  11  688
1477472941.866:   -247  87  11  688
1477472941.866:   -207  87  11  688
1477472941.870:   -171  87  11  688
1477472941.870:   -132  87  11  688
1477472941.870:    -96  87  11  688
1477472941.875:    -82  87  11  688
1477472941.875:    -99  87  11  688
1477472941.879:   -132  87  11  688
1477472941.880:   -153  87  11  688
1477472941.890:   -151  87  11  688
1477472941.890:   -141  87  11  688
1477472941.891:   -137  87  11  688
1477472941.892:   -135  87  11  688
1477472941.893:   -121  87  11  688
1477472941.894:    -98  87  11  688
1477472941.894:    -83  87  11  688
1477472941.895:    -83  87  11  688
1477472941.896:    -88  87  11  688
1477472941.898:    -80  87  11  688
1477472941.910:    -56  87  11  688
1477472941.911:    -35  87  11  688
1477472941.911:    -33  87  11  688
1477472941.912:    -45  87  11  688
1477472941.913:    -50  87  11  688
1477472941.914:    -42  87  11  688
1477472941.914:    -39  87  11  688
1477472941.917:    -59  87  11  688
1477472941.918:    -95  87  11  688
1477472941.921:   -121  87  11  688
1477472941.923:   -114  87  11  688
1477472941.928:    -80  87  11  688
1477472941.928:    -47  87  11  688
1477472941.929:    -31  87  11  688
1477472941.930:    -26  87  11  688
1477472941.931:    -14  87  11  688
1477472941.935:      4  87  11  688
1477472941.936:     11  87  11  688
1477472941.954:     -5  87  11  688
1477472941.955:    -35  87  11  688
1477472941.956:    -56  87  11  688
1477472941.957:    -54  87  11  688
1477472941.957:    -31  87  11  688
1477472941.958:     -2  87  11  688
1477472941.959:     21  87  11  688
1477472941.959:     27  87  11  688
1477472941.973:     12  87  11  688
1477472941.974:    -15  87  11  688
1477472941.977:    -34  87  11  688
1477472941.977:    -34  87  11  688
1477472941.977:    -22  87  11  688
1477472941.980:    -17  87  11  688
1477472941.980:    -21  87  11  688
1477472941.981:    -24  87  11  688
1477472941.981:    -20  87  11  688
1477472941.983:    -21  87  11  688
1477472941.983:    -52  87  11  688
1477472941.983:   -112  87  11  688
1477472941.984:   -177  87  11  688
1477472941.984:   -227  87  11  688
1477472941.984:   -261  87  11  688
1477472941.985:   -291  87  11  688
1477472941.985:   -318  87  11  688
1477472941.985:   -332  87  11  688
1477472941.987:   -333  87  11  688
1477472941.990:   -335  87  11  688
1477472941.990:   -346  87  11  688
1477472941.995:   -360  87  11  688
1477472941.996:   -363  87  11  688
1477472941.997:   -353  87  11  688
1477472941.999:   -338  87  11  688
1477472942.001:   -317  87  11  688
1477472942.003:   -276  87  11  688
1477472942.004:   -211  87  11  688
1477472942.009:   -140  87  11  688
1477472942.009:    -88  87  11  688
1477472942.025:    -62  87  11  688
1477472942.025:    -50  87  11  688
1477472942.026:    -34  87  11  688
1477472942.026:    -14  87  11  688
1477472942.026:     -9  87  11  688
1477472942.026:    -22  87  11  688
1477472942.026:    -39  87  11  688
1477472942.027:    -38  87  11  688
1477472942.027:    -14  87  11  688
1477472942.028:     12  87  11  688
1477472942.030:     12  87  11  688
1477472942.032:    -24  87  11  688
1477472942.037:    -70  87  11  688
1477472942.107:    -86  87  11  688
1477472942.108:    -53  87  11  688
1477472942.108:      7  87  11  688
1477472942.108:     58  87  11  688
1477472942.108:     88  87  11  688
1477472942.109:    116  87  11  688
1477472942.109:    166  87  11  688
1477472942.109:    231  87  11  688
1477472942.109:    273  87  11  688
1477472942.109:    268  87  11  688
1477472942.110:    227  87  11  688
1477472942.110:    183  87  11  688
1477472942.110:    156  87  11  688
1477472942.110:    141  87  11  688
1477472942.110:    118  87  11  688
1477472942.111:     75  87  11  688
1477472942.111:     19  87  11  688
1477472942.111:    -39  87  11  688
1477472942.111:    -87  87  11  688
1477472942.111:   -127  87  11  688
1477472942.112:   -172  87  11  688
1477472942.112:   -233  87  11  688
1477472942.112:   -306  87  11  688
1477472942.112:   -366  87  11  688
1477472942.112:   -391  87  11  688
1477472942.112:   -382  87  11  688
1477472942.113:   -360  87  11  688
1477472942.113:   -345  87  11  688
1477472942.113:   -345  87  11  688
1477472942.113:   -365  87  11  688
1477472942.114:   -402  87  11  688
1477472942.114:   -445  87  11  688
1477472942.114:   -471  87  11  688
1477472942.114:   -466  87  11  688
1477472942.116:   -441  87  11  688
1477472942.117:   -429  87  11  688
1477472942.117:   -445  87  11  688
1477472942.117:   -471  87  11  688
1477472942.117:   -486  87  11  688
1477472942.118:   -486  87  11  688
1477472942.118:   -489  87  11  688
1477472942.118:   -505  87  11  688
1477472942.119:   -519  87  11  688
1477472942.120:   -519  87  11  688
1477472942.123:   -509  87  11  688
1477472942.132:   -497  87  11  688
1477472942.132:   -477  87  11  688
1477472942.133:   -434  87  11  688
1477472942.133:   -375  87  11  688
1477472942.133:   -332  87  11  688
1477472942.134:   -328  87  11  688
1477472942.136:   -341  87  11  688
1477472942.137:   -335  87  11  688
1477472942.139:   -298  87  11  688
1477472942.141:   -255  87  11  688
1477472942.154:   -225  87  11  688
1477472942.155:   -194  87  11  688
1477472942.155:   -136  87  11  688
1477472942.155:    -55  87  11  688
1477472942.155:     12  87  11  688
1477472942.155:     59  87  11  688
1477472942.156:    139  87  11  688
1477472942.157:    299  87  11  688
1477472942.159:    530  87  11  688
1477472942.163:    783  87  11  688
1477472942.164:   1049  87  11  688
1477472942.166:   1383  87  11  688
1477472942.184:   1828  87  11  688
1477472942.184:   2314  87  11  688
1477472942.184:   2700  87  11  688
1477472942.184:   2911  87  11  688
1477472942.184:   2996  87  11  688
1477472942.185:   3014  87  11  688
1477472942.185:   2911  87  11  688
1477472942.185:   2552  87  11  688
1477472942.186:   1910  87  11  688
1477472942.186:   1153  87  11  688
1477472942.188:    512  87  11  688
1477472942.191:     69  87  11  688
1477472942.192:   -273  87  11  688
1477472942.193:   -607  87  11  688
1477472942.196:   -881  87  11  688
1477472942.201:   -956  87  11  688
1477472942.224:   -795  87  11  688
1477472942.224:   -528  87  11  688
1477472942.224:   -328  87  11  688
1477472942.225:   -270  87  11  688
1477472942.225:   -316  87  11  688
1477472942.225:   -419  87  11  688
1477472942.225:   -581  87  11  688
1477472942.225:   -811  87  11  688
1477472942.226:  -1073  87  11  688
1477472942.226:  -1307  87  11  688
1477472942.250:  -1482  87  11  688
1477472942.251:  -1612  87  11  688
1477472942.251:  -1718  87  11  688
1477472942.251:  -1797  87  11  688
1477472942.251:  -1840  87  11  688
1477472942.252:  -1861  87  11  688
1477472942.252:  -1900  87  11  688
1477472942.252:  -1990  87  11  688
1477472942.254:  -2123  87  11  688
1477472942.255:  -2262  87  11  688
1477472942.258:  -2366  87  11  688
1477472942.258:  -2406  87  11  688
1477472942.259:  -2368  87  11  688
1477472942.259:  -2253  87  11  688
1477472942.259:  -2081  87  11  688
1477472942.260:  -1883  87  11  688
1477472942.260:  -1693  87  11  688
1477472942.261:  -1535  87  11  688
1477472942.261:  -1409  87  11  688
1477472942.261:  -1309  87  11  688
1477472942.263:  -1229  87  11  688
1477472942.263:  -1161  87  11  688
1477472942.266:  -1092  87  11  688
1477472942.267:  -1005  87  11  688
1477472942.269:   -890  87  11  688
1477472942.269:   -761  87  11  688
1477472942.270:   -645  87  11  688
1477472942.271:   -558  87  11  688
1477472942.273:   -492  87  11  688
1477472942.275:   -428  87  11  688
1477472942.278:   -366  87  11  688
1477472942.282:   -317  87  11  688
1477472942.288:   -288  87  11  688
1477472942.288:   -264  87  11  688
1477472942.288:   -228  87  11  688
1477472942.289:   -183  87  11  688
1477472942.290:   -151  87  11  688
1477472942.292:   -152  87  11  688
1477472942.296:   -178  87  11  688
1477472942.296:   -202  87  11  688
1477472942.298:   -212  87  11  688
1477472942.299:   -212  87  11  688
1477472942.300:   -209  87  11  688
1477472942.306:   -198  87  11  688
1477472942.315:   -167  87  11  688
1477472942.316:   -118  87  11  688
1477472942.316:    -68  87  11  688
1477472942.316:    -40  87  11  688
1477472942.316:    -44  87  11  688
1477472942.316:    -69  87  11  688
1477472942.318:   -101  87  11  688
1477472942.319:   -129  87  11  688
1477472942.320:   -140  87  11  688
1477472942.322:   -125  87  11  688
1477472942.324:    -83  87  11  688
1477472942.328:    -29  87  11  688
1477472942.328:      9  87  11  688
1477472942.330:     10  87  11  688
1477472942.332:    -20  87  11  688
1477472942.334:    -47  87  11  688
1477472942.336:    -48  87  11  688
1477472942.337:    -35  87  11  688
1477472942.349:    -40  87  11  688
1477472942.349:    -74  87  11  688
1477472942.349:   -113  87  11  688
1477472942.349:   -120  87  11  688
1477472942.349:    -94  87  11  688
1477472942.350:    -69  87  11  688
1477472942.351:    -77  87  11  688
1477472942.355:   -108  87  11  688
1477472942.356:   -130  87  11  688
1477472942.358:   -123  87  11  688
1477472942.360:    -99  87  11  688
1477472942.361:    -77  87  11  688
1477472942.364:    -59  87  11  688
1477472942.367:    -35  87  11  688
1477472942.374:     -3  87  11  688
1477472942.374:     30  87  11  688
1477472942.374:     58  87  11  688
1477472942.375:     82  87  11  688
1477472942.376:    102  87  11  688
1477472942.378:    115  87  11  688
1477472942.379:    125  87  11  688
1477472942.383:    148  87  11  688
1477472942.396:    192  87  11  688
1477472942.397:    244  87  11  688
1477472942.398:    284  87  11  688
1477472942.399:    301  87  11  688
1477472942.400:    304  87  11  688
1477472942.400:    302  87  11  688
1477472942.401:    305  87  11  688
1477472942.402:    315  87  11  688
1477472942.402:    338  87  11  688
1477472942.404:    370  87  11  688
1477472942.422:    397  87  11  688
1477472942.422:    411  87  11  688
1477472942.422:    419  87  11  688
1477472942.422:    434  87  11  688
1477472942.422:    452  87  11  688
1477472942.422:    449  87  11  688
1477472942.423:    416  87  11  688
1477472942.423:    372  87  11  688
1477472942.423:    340  87  11  688
1477472942.423:    327  87  11  688
1477472942.424:    319  87  11  687
1477472942.424:    312  87  11  687
1477472942.426:    317  87  11  687
1477472942.429:    334  87  11  687
1477472942.430:    337  87  11  687
1477472942.433:    302  87  11  687
1477472942.434:    243  87  11  687
1477472942.438:    197  87  11  687
1477472942.439:    184  87  11  687
1477472942.440:    183  87  11  687
1477472942.456:    165  87  11  687
1477472942.456:    133  87  11  687
1477472942.456:    112  87  11  687
1477472942.456:    111  87  11  687
1477472942.457:    108  87  11  687
1477472942.457:     79  87  11  687
1477472942.457:     31  87  11  687
1477472942.457:    -16  87  11  687
1477472942.457:    -53  87  11  687
1477472942.459:    -91  87  11  687
1477472942.461:   -134  87  11  687
1477472942.466:   -160  87  11  687
1477472942.480:   -150  87  11  687
1477472942.480:   -109  87  11  687
1477472942.480:    -78  87  11  687
1477472942.480:    -97  87  11  687
1477472942.481:   -168  87  11  687
1477472942.481:   -253  87  11  687
1477472942.481:   -314  87  11  687
1477472942.481:   -342  87  11  687
1477472942.482:   -364  87  11  687
1477472942.484:   -406  87  11  687
1477472942.485:   -474  87  11  687
1477472942.487:   -545  87  11  687
1477472942.493:   -595  87  11  687
1477472942.495:   -618  87  11  687
1477472942.496:   -625  87  11  687
1477472942.497:   -631  87  11  687
1477472942.499:   -642  87  11  687
1477472942.500:   -657  87  11  687
1477472942.501:   -677  87  11  687
1477472942.506:   -700  87  11  687
1477472942.507:   -723  87  11  687
1477472942.508:   -742  87  11  687
1477472942.509:   -764  87  11  687
1477472942.510:   -800  87  11  687
1477472942.516:   -858  87  11  687
1477472942.516:   -923  87  11  687
1477472942.518:   -976  87  11  687
1477472942.519:  -1002  87  11  687
1477472942.533:  -1003  87  11  687
1477472942.534:   -989  87  11  687
1477472942.536:   -974  87  11  687
1477472942.536:   -970  87  11  687
1477472942.537:   -984  87  11  687
1477472942.537:  -1014  87  11  687
1477472942.538:  -1050  87  11  687
1477472942.538:  -1080  87  11  687
1477472942.539:  -1104  87  11  687
1477472942.539:  -1128  87  11  687
1477472942.567:  -1152  87  11  687
1477472942.568:  -1163  87  11  687
1477472942.594:  -1145  87  11  687
1477472942.595:  -1102  87  11  687
1477472942.596:  -1052  87  11  687
1477472942.597:  -1017  87  11  687
1477472942.598:  -1003  87  11  687
1477472942.599:   -994  87  11  687
1477472942.599:   -974  87  11  687
1477472942.600:   -946  87  11  687
1477472942.600:   -920  87  11  687
1477472942.601:   -902  87  11  687
1477472942.601:   -885  87  11  687
1477472942.602:   -863  87  11  687
1477472942.615:   -835  87  11  687
1477472942.616:   -809  87  11  687
1477472942.616:   -789  87  11  687
1477472942.617:   -767  87  11  687
1477472942.618:   -741  87  11  687
1477472942.618:   -724  87  11  687
1477472942.618:   -723  87  11  687
1477472942.619:   -721  87  11  687
1477472942.619:   -696  87  11  687
1477472942.620:   -642  87  11  687
1477472942.620:   -581  87  11  687
1477472942.620:   -539  87  11  687
1477472942.621:   -516  87  11  687
1477472942.621:   -482  87  11  687
1477472942.621:   -402  87  11  687
1477472942.622:   -265  87  11  687
1477472942.623:    -76  87  11  687
1477472942.623:    144  87  11  687
1477472942.623:    384  87  11  687
1477472942.624:    651  87  11  687
1477472942.624:    969  87  11  687
1477472942.624:   1344  87  11  687
1477472942.625:   1735  87  11  687
1477472942.625:   2067  87  11  687
1477472942.626:   2302  87  11  687
1477472942.626:   2467  87  11  687
1477472942.626:   2593  87  11  687
1477472942.627:   2624  87  11  687
1477472942.627:   2435  87  11  687
1477472942.627:   1966  87  11  687
1477472942.629:   1323  87  11  687
1477472942.630:    707  87  11  687
1477472942.642:    228  87  11  687
1477472942.642:   -162  87  11  687
1477472942.643:   -552  87  11  687
1477472942.643:   -923  87  11  687
1477472942.643:  -1153  87  11  687
1477472942.644:  -1151  87  11  687
1477472942.644:   -961  87  11  687
1477472942.645:   -719  87  11  687
1477472942.646:   -539  87  11  687
1477472942.648:   -464  87  11  687
1477472942.652:   -494  87  11  687
1477472942.653:   -614  87  11  687
1477472942.658:   -784  87  11  687
1477472942.658:   -958  87  11  687
1477472942.660:  -1124  87  11  687
1477472942.660:  -1305  87  11  687
1477472942.661:  -1517  87  11  687
1477472942.664:  -1710  87  11  687
1477472942.667:  -1812  87  11  687
1477472942.671:  -1808  87  11  687
1477472942.678:  -1772  87  11  687
1477472942.679:  -1797  87  11  687
1477472942.679:  -1900  87  11  687
1477472942.680:  -2024  87  11  687
1477472942.680:  -2115  87  11  687
1477472942.680:  -2179  87  11  687
1477472942.687:  -2244  87  11  687
1477472942.688:  -2304  87  11  687
1477472942.697:  -2313  87  11  687
1477472942.697:  -2237  87  11  687
1477472942.697:  -2100  87  11  687
1477472942.698:  -1958  87  11  687
1477472942.698:  -1846  87  11  687
1477472942.698:  -1750  87  11  687
1477472942.699:  -1641  87  11  687
1477472942.700:  -1512  87  11  687
1477472942.701:  -1384  87  11  687
1477472942.703:  -1273  87  11  687
1477472942.706:  -1170  87  11  687
1477472942.708:  -1052  87  11  687
1477472942.712:   -919  87  11  687
1477472942.713:   -807  87  11  687
1477472942.714:   -748  87  11  687
1477472942.715:   -742  87  11  687
1477472942.716:   -758  87  11  687
1477472942.719:   -765  87  11  687
1477472942.720:   -759  87  11  687
1477472942.726:   -748  87  11  687
1477472942.795:   -735  87  11  687
1477472942.795:   -709  87  11  687
1477472942.796:   -669  87  11  687
1477472942.796:   -632  87  11  687
1477472942.796:   -622  87  11  687
1477472942.796:   -637  87  11  687
1477472942.796:   -655  87  11  687
1477472942.796:   -654  87  11  687
1477472942.797:   -635  87  11  687
1477472942.797:   -611  87  11  687
1477472942.797:   -586  87  11  687
1477472942.797:   -556  87  11  687
1477472942.798:   -522  87  11  687
1477472942.798:   -499  87  11  687
1477472942.798:   -500  87  11  687
1477472942.798:   -517  87  11  687
1477472942.801:   -531  87  11  687
1477472942.801:   -535  87  11  687
1477472942.802:   -535  87  11  687
1477472942.802:   -539  87  11  687
1477472942.802:   -539  87  11  687
1477472942.802:   -523  87  11  687
1477472942.802:   -494  87  11  687
1477472942.802:   -476  87  11  687
1477472942.802:   -483  87  11  687
1477472942.803:   -503  87  11  687
1477472942.803:   -510  87  11  687
1477472942.803:   -496  87  11  687
1477472942.803:   -475  87  11  687
1477472942.803:   -462  87  11  687
1477472942.803:   -454  87  11  687
1477472942.804:   -441  87  11  687
1477472942.804:   -418  87  11  687
1477472942.805:   -398  87  11  687
1477472942.806:   -395  87  11  687
1477472942.806:   -405  87  11  687
1477472942.821:   -418  87  11  687
1477472942.821:   -424  87  11  687
1477472942.822:   -421  87  11  687
1477472942.822:   -409  87  11  687
1477472942.822:   -389  87  11  687
1477472942.822:   -362  87  11  687
1477472942.823:   -338  87  11  687
1477472942.823:   -323  87  11  687
1477472942.823:   -321  87  11  687
1477472942.823:   -325  87  11  687
1477472942.824:   -325  87  11  687
1477472942.824:   -316  87  11  687
1477472942.824:   -302  87  11  687
1477472942.824:   -288  87  11  687
1477472942.824:   -271  87  11  687
1477472942.827:   -252  87  11  687
1477472942.827:   -230  87  11  687
1477472942.829:   -211  87  11  687
1477472942.831:   -204  87  11  687
1477472942.832:   -212  87  11  687
1477472942.846:   -224  87  11  687
1477472942.846:   -230  87  11  687
1477472942.846:   -221  87  11  687
1477472942.846:   -198  87  11  687
1477472942.847:   -164  87  11  687
1477472942.847:   -124  87  11  687
1477472942.848:    -79  87  11  687
1477472942.851:    -38  87  11  687
1477472942.852:    -11  87  11  687
1477472942.855:     -9  87  11  687
1477472942.856:    -22  87  11  687
1477472942.857:    -35  87  11  687
1477472942.858:    -41  87  11  687
1477472942.861:    -48  87  11  687
1477472942.863:    -67  87  11  687
1477472942.865:    -96  87  11  687
1477472942.867:   -118  87  11  687
1477472942.868:   -121  87  11  687
1477472942.870:   -120  87  11  687
1477472942.871:   -142  87  11  687
1477472942.885:   -193  87  11  687
1477472942.886:   -249  87  11  687
1477472942.886:   -280  87  11  687
1477472942.887:   -281  87  11  687
1477472942.887:   -273  87  11  687
1477472942.887:   -275  87  11  687
1477472942.888:   -281  87  11  687
1477472942.890:   -276  87  11  687
1477472942.890:   -267  87  11  687
1477472942.892:   -274  87  11  687
1477472942.894:   -302  87  11  687
1477472942.895:   -329  87  11  687
1477472942.904:   -338  87  11  687
1477472942.904:   -332  87  11  687
1477472942.904:   -334  87  11  687
1477472942.905:   -349  87  11  687
1477472942.906:   -362  87  11  687
1477472942.912:   -360  87  11  687
1477472942.913:   -355  87  11  687
1477472942.913:   -376  87  11  687
1477472942.926:   -429  87  11  687
1477472942.926:   -488  87  11  687
1477472942.926:   -526  87  11  687
1477472942.926:   -540  87  11  687
1477472942.926:   -550  87  11  687
1477472942.926:   -567  87  11  687
1477472942.927:   -581  87  11  687
1477472942.928:   -578  87  11  687
1477472942.931:   -558  87  11  687
1477472942.931:   -548  87  11  687
1477472942.936:   -567  87  11  687
1477472942.936:   -606  87  11  687
1477472942.938:   -637  87  11  687
1477472942.940:   -636  87  11  687
1477472942.943:   -607  87  11  687
1477472942.943:   -571  87  11  687
1477472942.945:   -545  87  11  687
1477472942.950:   -525  87  11  687
1477472942.951:   -501  87  11  687
1477472942.952:   -472  87  11  687
1477472942.967:   -454  87  11  687
1477472942.968:   -458  87  11  687
1477472942.968:   -483  87  11  687
1477472942.968:   -511  87  11  687
1477472942.968:   -527  87  11  687
1477472942.969:   -523  87  11  687
1477472942.969:   -509  87  11  687
1477472942.969:   -497  87  11  687
1477472942.970:   -492  87  11  687
1477472942.971:   -493  87  11  687
1477472942.972:   -495  87  11  687
1477472942.977:   -490  87  11  687
1477472943.002:   -479  87  11  687
1477472943.002:   -470  87  11  687
1477472943.002:   -468  87  11  687
1477472943.002:   -471  87  11  687
1477472943.002:   -469  87  11  687
1477472943.003:   -460  87  11  687
1477472943.003:   -449  87  11  687
1477472943.003:   -451  87  11  687
1477472943.003:   -471  87  11  687
1477472943.003:   -503  87  11  687
1477472943.004:   -532  87  11  687
1477472943.004:   -548  87  11  687
1477472943.004:   -545  87  11  687
1477472943.004:   -526  87  11  687
1477472943.004:   -496  87  11  687
1477472943.005:   -467  87  11  687
1477472943.008:   -445  87  11  687
1477472943.009:   -434  87  11  687
1477472943.015:   -435  87  11  687
1477472943.015:   -446  87  11  687
1477472943.030:   -461  87  11  687
1477472943.030:   -478  87  11  687
1477472943.030:   -494  87  11  687
1477472943.031:   -509  87  11  687
1477472943.031:   -517  87  11  687
1477472943.031:   -515  87  11  687
1477472943.031:   -498  87  11  687
1477472943.034:   -476  87  11  687
1477472943.034:   -470  87  11  687
1477472943.034:   -492  87  11  687
1477472943.036:   -532  87  11  687
1477472943.037:   -569  87  11  687
1477472943.045:   -593  87  11  687
1477472943.045:   -608  87  11  687
1477472943.047:   -625  87  11  687
1477472943.048:   -642  87  11  687
1477472943.049:   -654  87  11  687
1477472943.050:   -663  87  11  687
1477472943.052:   -683  87  11  687
1477472943.054:   -722  87  11  687
1477472943.067:   -767  87  11  687
1477472943.067:   -802  87  11  687
1477472943.068:   -824  87  11  687
1477472943.068:   -842  87  11  687
1477472943.069:   -861  87  11  687
1477472943.070:   -871  87  11  687
1477472943.070:   -862  87  11  687
1477472943.071:   -842  87  11  687
1477472943.076:   -824  87  11  687
1477472943.076:   -816  87  11  687
1477472943.077:   -811  87  11  687
1477472943.077:   -800  87  11  687
1477472943.078:   -789  87  11  687
1477472943.080:   -786  87  11  687
1477472943.091:   -790  87  11  687
1477472943.091:   -789  87  11  687
1477472943.091:   -775  87  11  687
1477472943.091:   -752  87  11  687
1477472943.091:   -739  87  11  687
1477472943.092:   -749  87  11  687
1477472943.094:   -773  87  11  687
1477472943.096:   -783  87  11  687
1477472943.101:   -766  87  11  687
1477472943.101:   -728  87  11  687
1477472943.103:   -690  87  11  687
1477472943.104:   -668  87  11  687
1477472943.109:   -655  87  11  688
1477472943.109:   -638  87  11  688
1477472943.112:   -617  87  11  688
1477472943.115:   -612  87  11  688
1477472943.115:   -639  87  11  688
1477472943.117:   -687  87  11  688
1477472943.118:   -728  87  11  688
1477472943.119:   -738  87  11  688
1477472943.132:   -725  87  11  688
1477472943.132:   -710  87  11  688
1477472943.133:   -711  87  11  688
1477472943.133:   -723  87  11  688
1477472943.133:   -732  87  11  688
1477472943.133:   -731  87  11  688
1477472943.136:   -731  87  11  688
1477472943.136:   -748  87  11  688
1477472943.138:   -782  87  11  688
1477472943.142:   -822  87  11  688
1477472943.152:   -846  87  11  688
1477472943.152:   -845  87  11  688
1477472943.152:   -829  87  11  688
1477472943.153:   -816  87  11  688
1477472943.153:   -816  87  11  688
1477472943.153:   -828  87  11  688
1477472943.156:   -840  87  11  688
1477472943.156:   -845  87  11  688
1477472943.158:   -845  87  11  688
1477472943.159:   -842  87  11  688
1477472943.160:   -836  87  11  688
1477472943.171:   -818  87  11  688
1477472943.171:   -789  87  11  688
1477472943.172:   -757  87  11  688
1477472943.172:   -735  87  11  688
1477472943.176:   -731  87  11  688
1477472943.177:   -741  87  11  688
1477472943.178:   -752  87  11  688
1477472943.194:   -755  87  11  688
1477472943.195:   -750  87  11  688
1477472943.196:   -737  87  11  688
1477472943.197:   -716  87  11  688
1477472943.198:   -690  87  11  688
1477472943.198:   -664  87  11  688
1477472943.198:   -646  87  11  688
1477472943.199:   -637  87  11  688
1477472943.199:   -638  87  11  688
1477472943.199:   -648  87  11  688
1477472943.199:   -667  87  11  688
1477472943.200:   -694  87  11  688
1477472943.203:   -724  87  11  688
1477472943.203:   -743  87  11  688
1477472943.206:   -746  87  11  688
1477472943.207:   -742  87  11  688
1477472943.208:   -740  87  11  688
1477472943.210:   -752  87  11  688
1477472943.220:   -779  87  11  688
1477472943.221:   -817  87  11  688
1477472943.221:   -855  87  11  688
1477472943.222:   -885  87  11  688
1477472943.222:   -896  87  11  688
1477472943.222:   -886  87  11  688
1477472943.257:   -860  87  11  688
1477472943.258:   -828  87  11  688
1477472943.301:   -795  87  11  688
1477472943.301:   -760  87  11  688
1477472943.302:   -729  87  11  688
1477472943.302:   -708  87  11  688
1477472943.302:   -704  87  11  688
1477472943.302:   -711  87  11  688
1477472943.302:   -716  87  11  688
1477472943.303:   -709  87  11  688
1477472943.303:   -695  87  11  688
1477472943.303:   -687  87  11  688
1477472943.303:   -694  87  11  688
1477472943.303:   -711  87  11  688
1477472943.304:   -727  87  11  688
1477472943.304:   -740  87  11  688
1477472943.304:   -752  87  11  688
1477472943.304:   -769  87  11  688
1477472943.304:   -787  87  11  688
1477472943.305:   -804  87  11  688
1477472943.305:   -821  87  11  688
1477472943.305:   -837  87  11  688
1477472943.305:   -848  87  11  688
1477472943.305:   -854  87  11  688
1477472943.306:   -865  87  11  688
1477472943.306:   -899  87  11  688
1477472943.306:   -952  87  11  688
1477472943.306:   -993  87  11  688
1477472943.307:   -984  87  11  688
1477472943.307:   -919  87  11  688
1477472943.307:   -831  87  11  688
1477472943.307:   -757  87  11  688
1477472943.307:   -700  87  11  688
1477472943.308:   -640  87  11  688
1477472943.308:   -564  87  11  688
1477472943.308:   -498  87  11  688
1477472943.308:   -472  87  11  688
1477472943.309:   -489  87  11  688
1477472943.309:   -522  87  11  688
1477472943.309:   -546  87  11  688
1477472943.309:   -557  87  11  688
1477472943.309:   -565  87  11  688
1477472943.309:   -569  87  11  688
1477472943.321:   -557  87  11  688
1477472943.324:   -534  87  11  688
1477472943.326:   -521  87  11  688
1477472943.340:   -527  87  11  688
1477472943.340:   -537  87  11  688
1477472943.341:   -529  87  11  688
1477472943.341:   -495  87  11  688
1477472943.342:   -455  87  11  688
1477472943.342:   -428  87  11  688
1477472943.342:   -415  87  11  688
1477472943.343:   -401  87  11  688
1477472943.343:   -380  87  11  688
