timestamp: ADC HeartRate4sAverage HeartRate30sAverage HRV8sAverage
1477471634.026:     31  91  12  660
1477471634.027:     93  91  12  660
1477471634.030:    108  91  12  660
1477471634.030:     83  91  12  660
1477471634.031:     77  91  12  660
1477471634.031:    128  91  12  660
1477471634.032:    194  91  12  660
1477471634.032:    200  91  12  660
1477471634.032:    135  91  12  660
1477471634.033:     66  91  12  660
1477471634.033:     56  91  12  660
1477471634.034:     94  91  12  660
1477471634.036:    115  91  12  660
1477471634.037:     87  91  12  660
1477471634.040:     41  91  12  660
1477471634.042:     23  91  12  660
1477471634.050:     31  91  12  660
1477471634.051:     28  91  12  660
1477471634.051:     -3  91  12  660
1477471634.051:    -47  91  12  660
1477471634.051:    -85  91  12  660
1477471634.054:   -119  91  12  660
1477471634.056:   -162  91  12  660
1477471634.060:   -204  91  12  660
1477471634.060:   -219  91  12  660
1477471634.063:   -201  91  12  660
1477471634.064:   -173  91  12  660
1477471634.068:   -154  91  12  660
1477471634.068:   -138  91  12  660
1477471634.072:   -100  91  12  660
1477471634.074:    -26  91  12  660
1477471634.074:     70  91  12  660
1477471634.076:    162  91  12  660
1477471634.077:    237  91  12  660
1477471634.079:    297  91  12  660
1477471634.082:    350  91  12  660
1477471634.083:    401  91  12  660
1477471634.087:    454  91  12  660
1477471634.088:    517  91  12  660
1477471634.090:    587  91  12  660
1477471634.091:    641  91  12  660
1477471634.092:    649  91  12  660
1477471634.094:    606  91  12  660
1477471634.097:    535  91  12  660
1477471634.101:    469  91  12  660
1477471634.101:    412  91  12  660
1477471634.103:    336  91  12  660
1477471634.104:    217  91  12  660
1477471634.105:     71  91  12  660
1477471634.108:    -57  91  12  660
1477471634.132:   -137  91  12  660
1477471634.132:   -189  91  12  660
1477471634.132:   -248  91  12  660
1477471634.132:   -321  91  12  660
1477471634.132:   -384  91  12  660
1477471634.133:   -415  91  12  660
1477471634.133:   -425  91  12  660
1477471634.133:   -436  91  12  660
1477471634.133:   -446  91  12  660
1477471634.133:   -432  91  12  660
1477471634.134:   -390  91  12  660
1477471634.134:   -356  91  12  660
1477471634.134:   -362  91  12  660
1477471634.136:   -399  91  12  660
1477471634.138:   -432  91  12  660
1477471634.142:   -442  91  12  660
1477471634.143:   -446  91  12  660
1477471634.144:   -461  91  12  660
1477471634.155:   -474  91  12  660
1477471634.155:   -453  91  12  660
1477471634.156:   -395  91  12  660
1477471634.156:   -331  91  12  660
1477471634.157:   -283  91  12  660
1477471634.157:   -234  91  12  660
1477471634.158:   -158  91  12  660
1477471634.159:    -67  91  12  660
1477471634.160:     -9  91  12  660
1477471634.163:    -20  91  12  660
1477471634.165:    -76  91  12  660
1477471634.170:   -128  91  12  660
1477471634.170:   -154  91  12  660
1477471634.175:   -178  91  12  660
1477471634.183:   -223  91  12  660
1477471634.251:   -271  91  12  660
1477471634.251:   -288  91  12  660
1477471634.252:   -272  91  12  660
1477471634.252:   -263  91  12  660
1477471634.252:   -292  91  12  660
1477471634.252:   -340  91  12  660
1477471634.252:   -354  91  12  660
1477471634.253:   -316  91  12  660
1477471634.253:   -271  91  12  660
1477471634.253:   -284  91  12  660
1477471634.253:   -364  91  12  660
1477471634.253:   -459  91  12  660
1477471634.253:   -504  91  12  660
1477471634.253:   -484  91  12  660
1477471634.254:   -439  91  12  660
1477471634.256:   -411  91  12  660
1477471634.256:   -409  91  12  660
1477471634.257:   -412  91  12  660
1477471634.257:   -404  91  12  660
1477471634.257:   -390  91  12  660
1477471634.257:   -386  91  12  660
1477471634.257:   -402  91  12  660
1477471634.257:   -433  91  12  660
1477471634.258:   -481  91  12  660
1477471634.258:   -544  91  12  660
1477471634.258:   -602  91  12  660
1477471634.258:   -619  91  12  660
1477471634.258:   -561  91  12  660
1477471634.258:   -416  91  12  660
1477471634.259:   -207  91  12  660
1477471634.259:     35  91  12  660
1477471634.259:    292  91  12  660
1477471634.259:    577  91  12  660
1477471634.260:    928  91  12  660
1477471634.260:   1374  91  12  660
1477471634.260:   1916  91  12  660
1477471634.260:   2526  91  12  660
1477471634.260:   3170  91  12  660
1477471634.261:   3804  91  12  660
1477471634.261:   4376  91  12  660
1477471634.261:   4841  91  12  660
1477471634.262:   5194  91  12  660
1477471634.262:   5474  91  12  660
1477471634.262:   5706  91  12  660
1477471634.262:   5854  91  12  660
1477471634.268:   5844  91  12  660
1477471634.268:   5654  91  12  660
1477471634.282:   5337  91  12  660
1477471634.282:   4940  91  12  660
1477471634.282:   4408  91  12  660
1477471634.282:   3626  91  12  660
1477471634.283:   2558  91  12  660
1477471634.283:   1326  91  12  660
1477471634.283:    114  91  12  660
1477471634.283:   -985  91  12  660
1477471634.285:  -2010  91  12  660
1477471634.285:  -3003  91  12  660
1477471634.288:  -3890  91  12  660
1477471634.289:  -4508  91  12  660
1477471634.291:  -4749  91  12  660
1477471634.293:  -4643  91  12  660
1477471634.294:  -4325  91  12  660
1477471634.298:  -3931  91  12  660
1477471634.311:  -3524  91  12  660
1477471634.312:  -3107  91  12  660
1477471634.312:  -2666  91  12  660
1477471634.312:  -2214  91  12  660
1477471634.340:  -1807  91  12  660
1477471634.340:  -1508  91  12  660
1477471634.340:  -1330  91  12  660
1477471634.340:  -1213  91  12  660
1477471634.340:  -1078  91  12  660
1477471634.341:   -895  91  12  660
1477471634.341:   -699  91  12  660
1477471634.341:   -521  91  12  660
1477471634.343:   -360  91  12  660
1477471634.344:   -199  91  12  660
1477471634.347:    -58  91  12  660
1477471634.347:     27  91  12  660
1477471634.347:     66  91  12  660
1477471634.348:    106  91  12  660
1477471634.348:    174  91  12  660
1477471634.348:    244  91  12  660
1477471634.348:    290  91  12  660
1477471634.348:    342  91  12  660
1477471634.348:    448  91  12  660
1477471634.348:    584  91  12  660
1477471634.351:    655  91  12  660
1477471634.351:    610  91  12  660
1477471634.354:    522  91  12  660
1477471634.355:    508  91  12  660
1477471634.356:    589  91  12  660
1477471634.358:    674  91  12  660
1477471634.358:    684  91  12  660
1477471634.359:    656  91  12  660
1477471634.362:    692  91  12  660
1477471634.363:    805  91  12  660
1477471634.392:    895  91  12  660
1477471634.392:    879  91  12  660
1477471634.415:    797  91  12  660
1477471634.415:    765  91  12  660
1477471634.415:    831  91  12  660
1477471634.416:    916  91  12  660
1477471634.416:    911  91  12  660
1477471634.416:    799  91  12  660
1477471634.416:    670  91  12  660
1477471634.416:    622  91  12  660
1477471634.416:    667  91  12  660
1477471634.416:    737  91  12  660
1477471634.417:    760  91  12  660
1477471634.417:    729  91  12  660
1477471634.417:    690  91  12  660
1477471634.417:    694  91  12  660
1477471634.417:    751  91  12  660
1477471634.417:    825  91  12  660
1477471634.417:    880  91  12  660
1477471634.418:    907  91  12  660
1477471634.418:    929  91  12  660
1477471634.418:    977  91  12  660
1477471634.418:   1062  91  12  660
1477471634.418:   1173  91  12  660
1477471634.418:   1292  91  12  660
1477471634.418:   1400  91  12  660
1477471634.418:   1483  91  12  660
1477471634.419:   1544  91  12  660
1477471634.426:   1601  91  12  660
1477471634.426:   1670  91  12  660
1477471634.426:   1753  91  12  660
1477471634.426:   1829  91  12  660
1477471634.428:   1879  91  12  660
1477471634.429:   1917  91  12  660
1477471634.436:   1979  91  12  660
1477471634.436:   2083  91  12  660
1477471634.441:   2193  91  12  660
1477471634.441:   2259  91  12  660
1477471634.441:   2278  91  12  660
1477471634.442:   2302  91  12  660
1477471634.443:   2384  91  12  660
1477471634.450:   2514  91  12  660
1477471634.450:   2629  91  12  660
1477471634.450:   2695  91  12  660
1477471634.454:   2746  91  12  660
1477471634.454:   2840  91  12  660
1477471634.457:   2976  91  12  660
1477471634.460:   3101  91  12  660
1477471634.460:   3167  91  12  660
1477471634.462:   3187  91  12  660
1477471634.463:   3215  91  12  660
1477471634.467:   3281  91  12  660
1477471634.467:   3361  91  12  660
1477471634.469:   3416  91  12  660
1477471634.471:   3432  91  12  660
1477471634.473:   3434  91  12  660
1477471634.477:   3455  91  12  660
1477471634.478:   3508  91  12  660
1477471634.481:   3573  91  12  660
1477471634.481:   3610  91  12  660
1477471634.483:   3600  91  12  660
1477471634.486:   3570  91  12  660
1477471634.488:   3573  91  12  660
1477471634.491:   3634  91  12  660
1477471634.491:   3712  91  12  660
1477471634.495:   3732  91  12  660
1477471634.495:   3662  91  12  660
1477471634.497:   3543  91  12  660
1477471634.498:   3437  91  12  660
1477471634.505:   3356  91  12  660
1477471634.505:   3257  91  12  660
1477471634.505:   3090  91  12  660
1477471634.507:   2855  91  12  660
1477471634.509:   2601  91  12  660
1477471634.510:   2374  91  12  660
1477471634.512:   2195  91  12  660
1477471634.514:   2054  90  12  658
1477471634.517:   1925  90  12  658
1477471634.518:   1788  90  12  658
1477471634.522:   1635  90  12  658
1477471634.533:   1487  90  12  658
1477471634.533:   1370  90  12  658
1477471634.533:   1286  90  12  658
1477471634.534:   1203  90  12  658
1477471634.534:   1079  90  12  658
1477471634.534:    914  90  12  658
1477471634.537:    754  90  12  658
1477471634.537:    640  90  12  658
1477471634.538:    561  90  12  658
1477471634.539:    469  90  12  658
1477471634.545:    334  90  12  658
1477471634.545:    182  90  12  658
1477471634.556:     60  90  12  658
1477471634.556:    -22  90  12  658
1477471634.557:    -98  90  12  658
1477471634.557:   -209  90  12  658
1477471634.557:   -353  90  12  658
1477471634.557:   -493  90  12  658
1477471634.559:   -599  90  12  658
1477471634.562:   -673  90  12  658
1477471634.564:   -737  90  12  658
1477471634.564:   -803  90  12  658
1477471634.566:   -868  90  12  658
1477471634.567:   -919  90  12  658
1477471634.580:   -947  90  12  658
1477471634.580:   -958  90  12  658
1477471634.580:   -972  90  12  658
1477471634.581:  -1008  90  12  658
1477471634.581:  -1067  90  12  658
1477471634.581:  -1127  90  12  658
1477471634.581:  -1164  90  12  658
1477471634.586:  -1173  90  12  658
1477471634.587:  -1175  90  12  658
1477471634.590:  -1185  90  12  658
1477471634.590:  -1195  90  12  658
1477471634.591:  -1191  90  12  658
1477471634.596:  -1183  90  12  658
1477471634.597:  -1207  90  12  658
1477471634.598:  -1277  90  12  658
1477471634.599:  -1364  90  12  658
1477471634.601:  -1422  90  12  658
1477471634.605:  -1439  90  12  658
1477471634.606:  -1439  90  12  658
1477471634.607:  -1448  90  12  658
1477471634.608:  -1452  90  12  658
1477471634.614:  -1416  90  12  658
1477471634.644:  -1327  90  12  658
1477471634.645:  -1204  90  12  658
1477471634.646:  -1082  90  12  658
1477471634.647:   -981  90  12  658
1477471634.647:   -907  90  12  658
1477471634.647:   -855  90  12  658
1477471634.647:   -817  90  12  658
1477471634.647:   -783  90  12  658
1477471634.648:   -750  90  12  658
1477471634.648:   -726  90  12  658
1477471634.648:   -716  90  12  658
1477471634.648:   -703  90  12  658
1477471634.648:   -669  90  12  658
1477471634.649:   -622  90  12  658
1477471634.649:   -597  90  12  658
1477471634.649:   -619  90  12  658
1477471634.649:   -659  90  12  658
1477471634.650:   -665  90  12  658
1477471634.650:   -625  90  12  658
1477471634.651:   -585  90  12  658
1477471634.655:   -593  90  12  658
1477471634.655:   -646  90  12  658
1477471634.657:   -693  90  12  658
1477471634.658:   -694  90  12  658
1477471634.659:   -668  90  12  658
1477471634.665:   -660  90  12  658
1477471634.665:   -695  90  12  658
1477471634.669:   -747  90  12  658
1477471634.682:   -777  90  12  658
1477471634.682:   -766  90  12  658
1477471634.683:   -728  90  12  658
1477471634.683:   -688  90  12  658
1477471634.683:   -658  90  12  658
1477471634.683:   -632  90  12  658
1477471634.683:   -588  90  12  658
1477471634.683:   -517  90  12  658
1477471634.684:   -434  90  12  658
1477471634.686:   -371  90  12  658
1477471634.687:   -338  90  12  658
1477471634.689:   -317  90  12  658
1477471634.692:   -283  90  12  658
1477471634.697:   -236  90  12  658
1477471634.711:   -204  90  12  658
1477471634.711:   -211  90  12  658
1477471634.711:   -252  90  12  658
1477471634.712:   -302  90  12  658
1477471634.712:   -337  90  12  658
1477471634.712:   -347  90  12  658
1477471634.712:   -337  90  12  658
1477471634.712:   -325  90  12  658
1477471634.713:   -330  90  12  658
1477471634.713:   -354  90  12  658
1477471634.714:   -372  90  12  658
1477471634.717:   -354  90  12  658
1477471634.720:   -307  90  12  658
1477471634.724:   -278  90  12  658
1477471634.724:   -308  90  12  658
1477471634.725:   -375  90  12  658
1477471634.738:   -411  90  12  658
1477471634.738:   -364  90  12  658
1477471634.739:   -262  90  12  658
1477471634.739:   -176  90  12  658
1477471634.739:   -151  90  12  658
1477471634.739:   -171  90  12  658
1477471634.740:   -193  90  12  658
1477471634.741:   -191  90  12  658
1477471634.742:   -177  90  12  658
1477471634.745:   -171  90  12  658
1477471634.747:   -183  90  12  658
1477471634.752:   -203  90  12  658
1477471634.752:   -211  90  12  658
1477471634.754:   -187  90  12  658
1477471634.754:   -119  90  12  658
1477471634.756:    -18  90  12  658
1477471634.758:     90  90  12  658
1477471634.761:    181  90  12  658
1477471634.765:    254  90  12  658
1477471634.765:    325  90  12  658
1477471634.781:    401  90  12  658
1477471634.782:    456  90  12  658
1477471634.782:    457  90  12  658
1477471634.782:    406  90  12  658
1477471634.783:    342  90  12  658
1477471634.783:    298  90  12  658
1477471634.783:    268  90  12  658
1477471634.783:    206  90  12  658
1477471634.784:     86  90  12  658
1477471634.785:    -65  90  12  658
1477471634.785:   -185  90  12  658
1477471634.788:   -231  90  12  658
1477471634.793:   -218  90  12  658
1477471634.793:   -197  90  12  658
1477471634.801:   -207  90  12  658
1477471634.801:   -243  90  12  658
1477471634.802:   -268  90  12  658
1477471634.803:   -245  90  12  658
1477471634.804:   -169  90  12  658
1477471634.808:    -67  90  12  658
1477471634.810:     20  90  12  658
1477471634.812:     61  90  12  658
1477471634.885:     53  90  12  658
1477471634.885:     18  90  12  658
1477471634.885:    -25  90  12  658
1477471634.886:    -75  90  12  658
1477471634.886:   -142  90  12  658
1477471634.886:   -223  90  12  658
1477471634.886:   -297  90  12  658
1477471634.886:   -343  90  12  658
1477471634.886:   -360  90  12  658
1477471634.887:   -365  90  12  658
1477471634.887:   -361  90  12  658
1477471634.887:   -336  90  12  658
1477471634.887:   -286  90  12  658
1477471634.887:   -237  90  12  658
1477471634.887:   -226  90  12  658
1477471634.887:   -265  90  12  658
1477471634.888:   -327  90  12  658
1477471634.888:   -379  90  12  658
1477471634.888:   -411  90  12  658
1477471634.888:   -427  90  12  658
1477471634.888:   -423  90  12  658
1477471634.888:   -382  90  12  658
1477471634.889:   -307  90  12  658
1477471634.889:   -224  90  12  658
1477471634.889:   -170  90  12  658
1477471634.889:   -145  90  12  658
1477471634.890:   -120  90  12  658
1477471634.890:    -76  90  12  658
1477471634.890:    -32  90  12  658
1477471634.890:    -25  90  12  658
1477471634.890:    -67  90  12  658
1477471634.890:   -124  90  12  658
1477471634.891:   -152  90  12  658
1477471634.891:   -141  90  12  658
1477471634.891:   -119  90  12  658
1477471634.891:   -107  90  12  658
1477471634.891:    -93  90  12  658
1477471634.892:    -52  90  12  658
1477471634.892:      3  90  12  658
1477471634.892:     16  90  12  658
1477471634.892:    -61  90  12  658
1477471634.892:   -207  90  12  658
1477471634.893:   -359  90  12  658
1477471634.893:   -470  90  12  658
1477471634.896:   -554  90  12  658
1477471634.898:   -644  90  12  658
1477471634.910:   -721  90  12  658
1477471634.910:   -721  90  12  658
1477471634.911:   -599  90  12  658
1477471634.911:   -381  90  12  658
1477471634.911:   -117  90  12  658
1477471634.911:    185  90  12  658
1477471634.912:    569  90  12  658
1477471634.913:   1061  90  12  658
1477471634.916:   1618  90  12  658
1477471634.917:   2171  90  12  658
1477471634.921:   2710  90  12  658
1477471634.921:   3271  90  12  658
1477471634.931:   3854  90  12  658
1477471634.931:   4381  90  12  658
1477471634.931:   4782  90  12  658
1477471634.931:   5081  90  12  658
1477471634.931:   5359  90  12  658
1477471634.935:   5625  90  12  658
1477471634.936:   5772  90  12  658
1477471634.937:   5695  90  12  658
1477471634.939:   5416  90  12  658
1477471634.944:   5050  90  12  658
1477471634.944:   4620  90  12  658
1477471634.945:   3988  90  12  658
1477471634.947:   3004  90  12  658
1477471634.948:   1707  90  12  658
1477471634.964:    332  90  12  658
1477471634.964:   -903  90  12  658
1477471634.965:  -1969  90  12  658
1477471634.966:  -2972  90  12  658
1477471634.966:  -3940  90  12  658
1477471634.967:  -4726  90  12  658
1477471634.967:  -5141  90  12  658
1477471634.968:  -5138  90  12  658
1477471634.968:  -4853  90  12  658
1477471634.969:  -4463  90  12  658
1477471634.970:  -4043  90  12  658
1477471634.972:  -3567  90  12  658
1477471634.983:  -3015  90  12  658
1477471634.983:  -2451  90  12  658
1477471634.984:  -1969  90  12  658
1477471634.985:  -1611  90  12  658
1477471634.986:  -1339  90  12  658
1477471634.987:  -1094  90  12  658
1477471634.987:   -861  90  12  658
1477471634.990:   -652  90  12  658
1477471634.990:   -476  90  12  658
1477471634.992:   -317  90  12  658
1477471634.994:   -157  90  12  658
1477471634.996:     -3  90  12  658
1477471634.998:    120  90  12  658
1477471635.000:    194  90  12  658
1477471635.004:    216  90  12  658
1477471635.004:    198  90  12  658
1477471635.017:    166  90  12  658
1477471635.017:    152  90  12  658
1477471635.018:    179  90  12  658
1477471635.018:    237  90  12  658
1477471635.018:    284  90  12  658
1477471635.018:    285  90  12  658
1477471635.018:    257  90  12  658
1477471635.020:    241  90  12  658
1477471635.021:    260  90  12  658
1477471635.024:    292  90  12  658
1477471635.026:    315  90  12  658
1477471635.028:    337  90  12  658
1477471635.038:    389  90  12  658
1477471635.039:    473  90  12  658
1477471635.040:    545  90  12  658
1477471635.041:    558  90  12  658
1477471635.041:    502  90  12  658
1477471635.042:    412  90  12  658
1477471635.042:    331  90  12  658
1477471635.046:    282  90  12  658
1477471635.057:    269  90  12  658
1477471635.057:    280  90  12  658
1477471635.057:    300  90  12  658
1477471635.057:    324  90  12  658
1477471635.057:    360  90  12  658
1477471635.058:    434  90  12  658
1477471635.059:    545  90  12  658
1477471635.059:    650  90  12  658
1477471635.061:    691  90  12  658
1477471635.064:    662  90  12  658
1477471635.065:    618  90  12  658
1477471635.067:    624  90  12  658
1477471635.068:    685  90  12  658
1477471635.073:    755  90  12  658
1477471635.081:    795  90  12  658
1477471635.081:    822  90  12  658
1477471635.081:    877  90  12  658
1477471635.081:    966  90  12  658
1477471635.082:   1048  90  12  658
1477471635.083:   1094  90  12  658
1477471635.088:   1126  90  12  658
1477471635.088:   1191  90  12  658
1477471635.102:   1306  90  12  658
1477471635.102:   1439  90  12  658
1477471635.102:   1560  90  12  658
1477471635.103:   1674  90  12  658
1477471635.103:   1801  90  12  658
1477471635.104:   1946  90  12  658
1477471635.104:   2080  90  12  658
1477471635.105:   2170  90  12  658
1477471635.105:   2209  90  12  658
1477471635.108:   2223  90  12  658
1477471635.109:   2251  90  12  658
1477471635.109:   2324  90  12  658
1477471635.112:   2437  90  12  658
1477471635.114:   2557  90  12  658
1477471635.118:   2644  90  12  658
1477471635.118:   2698  90  12  658
1477471635.120:   2756  90  12  658
1477471635.122:   2848  90  12  658
1477471635.135:   2964  90  12  658
1477471635.137:   3056  90  12  658
1477471635.137:   3093  90  12  658
1477471635.138:   3097  90  12  658
1477471635.138:   3116  90  12  658
1477471635.139:   3168  90  12  658
1477471635.140:   3233  90  12  658
1477471635.141:   3285  90  12  658
1477471635.141:   3323  90  12  658
1477471635.142:   3365  90  12  658
1477471635.156:   3411  90  12  658
1477471635.156:   3441  90  12  658
1477471635.156:   3442  90  12  658
1477471635.157:   3426  90  12  658
1477471635.157:   3409  90  12  658
1477471635.157:   3386  90  12  658
1477471635.157:   3340  90  12  658
1477471635.159:   3265  90  12  658
1477471635.160:   3190  90  12  658
1477471635.162:   3142  90  12  658
1477471635.163:   3123  90  12  658
1477471635.165:   3104  90  12  658
1477471635.169:   3066  90  12  658
1477471635.169:   3020  90  12  658
1477471635.194:   2982  90  12  658
1477471635.195:   2938  90  12  658
1477471635.195:   2853  90  12  658
1477471635.195:   2702  90  12  658
1477471635.195:   2502  90  12  658
1477471635.195:   2285  90  12  658
1477471635.196:   2070  90  12  658
1477471635.197:   1859  90  12  658
1477471635.197:   1653  90  12  658
1477471635.197:   1465  90  12  658
1477471635.198:   1297  90  12  658
1477471635.198:   1138  90  12  658
1477471635.198:    975  90  12  658
1477471635.198:    810  90  12  658
1477471635.200:    653  90  12  658
1477471635.200:    506  90  12  658
1477471635.202:    352  90  12  658
1477471635.203:    181  90  12  658
1477471635.210:      4  90  12  658
1477471635.210:   -166  90  12  658
1477471635.210:   -329  90  12  658
1477471635.212:   -505  90  12  658
1477471635.232:   -699  90  12  658
1477471635.232:   -898  90  12  658
1477471635.232:  -1076  90  12  658
1477471635.233:  -1220  90  12  658
1477471635.233:  -1340  90  12  658
1477471635.233:  -1448  90  12  658
1477471635.233:  -1546  90  12  658
1477471635.234:  -1623  90  12  658
1477471635.234:  -1675  90  12  658
1477471635.234:  -1713  90  12  658
1477471635.234:  -1751  90  12  658
1477471635.236:  -1797  90  12  658
1477471635.237:  -1838  90  12  658
1477471635.242:  -1862  90  12  658
1477471635.242:  -1869  90  12  658
1477471635.243:  -1874  90  12  658
1477471635.255:  -1876  90  12  658
1477471635.255:  -1856  90  12  658
1477471635.255:  -1800  90  12  658
1477471635.256:  -1726  90  12  658
1477471635.256:  -1668  90  12  658
1477471635.256:  -1638  90  12  658
1477471635.257:  -1617  90  12  658
1477471635.258:  -1574  90  12  658
1477471635.264:  -1506  90  12  658
1477471635.264:  -1436  90  12  658
1477471635.266:  -1379  90  12  658
1477471635.267:  -1320  90  12  658
1477471635.269:  -1240  90  12  658
1477471635.273:  -1147  90  12  658
1477471635.282:  -1077  90  12  658
1477471635.283:  -1048  90  12  658
1477471635.284:  -1046  90  12  658
1477471635.284:  -1044  90  12  658
1477471635.284:  -1040  90  12  658
1477471635.285:  -1054  90  12  658
1477471635.285:  -1100  90  12  658
1477471635.286:  -1164  90  12  658
1477471635.291:  -1214  90  12  658
1477471635.292:  -1232  90  12  658
1477471635.295:  -1232  90  12  658
1477471635.295:  -1236  90  12  658
1477471635.305:  -1253  90  12  658
1477471635.306:  -1274  90  12  658
1477471635.306:  -1282  90  12  658
1477471635.306:  -1265  90  12  658
1477471635.306:  -1219  90  12  658
1477471635.310:  -1153  90  12  658
1477471635.310:  -1092  90  12  658
1477471635.310:  -1059  90  12  658
1477471635.346:  -1047  90  12  658
1477471635.346:  -1016  90  12  658
1477471635.354:   -934  90  12  658
1477471635.355:   -815  90  12  658
1477471635.355:   -708  90  12  658
1477471635.355:   -649  90  12  658
1477471635.355:   -633  90  12  658
1477471635.355:   -616  90  12  658
1477471635.356:   -579  90  12  658
1477471635.356:   -540  90  12  658
1477471635.356:   -521  90  12  658
1477471635.356:   -516  90  12  658
1477471635.356:   -503  90  12  658
1477471635.357:   -475  90  12  658
1477471635.357:   -457  90  12  658
1477471635.357:   -459  90  12  658
1477471635.357:   -454  90  12  658
1477471635.357:   -414  90  12  658
1477471635.357:   -348  90  12  658
1477471635.358:   -303  90  12  658
1477471635.358:   -307  90  12  658
1477471635.358:   -337  90  12  658
1477471635.359:   -355  90  12  658
1477471635.360:   -361  90  12  658
1477471635.361:   -392  90  12  658
1477471635.362:   -456  90  12  658
1477471635.366:   -507  90  12  658
1477471635.367:   -488  90  12  658
1477471635.376:   -409  90  12  658
1477471635.377:   -336  90  12  658
1477471635.390:   -318  90  12  658
1477471635.390:   -329  90  12  658
1477471635.390:   -313  90  12  658
1477471635.390:   -254  90  12  658
1477471635.390:   -202  90  12  658
1477471635.391:   -211  90  12  658
1477471635.391:   -283  90  12  658
1477471635.391:   -370  90  12  658
1477471635.391:   -425  90  12  658
1477471635.391:   -441  90  12  658
1477471635.392:   -440  90  12  658
1477471635.392:   -444  90  12  658
1477471635.394:   -453  90  12  658
1477471635.397:   -446  90  12  658
1477471635.402:   -418  90  12  658
1477471635.402:   -384  90  12  658
1477471635.413:   -371  90  12  658
1477471635.413:   -393  90  12  658
1477471635.413:   -434  90  12  658
1477471635.414:   -453  90  12  658
1477471635.414:   -431  90  12  658
1477471635.415:   -391  90  12  658
1477471635.415:   -379  90  12  658
1477471635.417:   -408  90  12  658
1477471635.418:   -438  90  12  658
1477471635.419:   -415  90  12  658
1477471635.422:   -325  90  12  658
1477471635.424:   -208  90  12  658
1477471635.429:   -123  90  12  658
1477471635.430:    -88  90  12  658
1477471635.431:    -62  90  12  658
1477471635.432:     11  90  12  658
1477471635.434:    137  90  12  658
1477471635.440:    265  90  12  658
1477471635.457:    340  90  12  658
1477471635.457:    356  90  12  658
1477471635.457:    360  90  12  658
1477471635.457:    390  90  12  658
1477471635.457:    434  90  12  658
1477471635.458:    445  90  12  658
1477471635.458:    402  90  12  658
1477471635.458:    330  90  12  658
1477471635.458:    265  90  12  658
1477471635.458:    219  90  12  658
1477471635.459:    165  90  12  658
1477471635.459:     75  90  12  658
1477471635.461:    -57  90  12  658
1477471635.467:   -212  90  12  658
1477471635.467:   -359  90  12  658
1477471635.470:   -473  90  12  658
1477471635.481:   -563  90  12  658
1477471635.481:   -649  90  12  658
1477471635.481:   -749  90  12  658
1477471635.481:   -852  90  12  658
1477471635.482:   -924  90  12  658
1477471635.482:   -949  90  12  658
1477471635.484:   -942  90  12  658
1477471635.484:   -927  90  12  658
1477471635.486:   -913  90  12  658
1477471635.487:   -890  90  12  658
1477471635.488:   -850  90  12  658
1477471635.491:   -802  90  12  658
1477471635.501:   -760  90  12  658
1477471635.554:   -731  90  12  658
1477471635.555:   -709  90  12  658
1477471635.555:   -689  90  12  658
1477471635.555:   -678  90  12  658
1477471635.555:   -688  90  12  658
1477471635.555:   -717  90  12  658
1477471635.555:   -745  90  12  658
1477471635.556:   -743  90  12  658
1477471635.556:   -699  90  12  658
1477471635.556:   -627  90  12  658
1477471635.556:   -563  90  12  658
1477471635.556:   -530  90  12  658
1477471635.556:   -528  90  12  658
1477471635.557:   -531  90  12  658
1477471635.557:   -521  90  12  658
1477471635.557:   -506  90  12  658
1477471635.557:   -504  90  12  658
1477471635.557:   -524  90  12  658
1477471635.557:   -549  90  12  658
1477471635.557:   -562  90  12  658
1477471635.558:   -568  90  12  658
1477471635.558:   -585  90  12  658
1477471635.558:   -624  90  12  658
1477471635.558:   -671  90  12  658
1477471635.558:   -701  90  12  658
1477471635.558:   -703  90  12  658
1477471635.558:   -685  90  12  658
1477471635.559:   -657  90  12  658
1477471635.559:   -623  90  12  658
1477471635.559:   -580  90  12  658
1477471635.559:   -531  90  12  658
1477471635.559:   -491  90  12  658
1477471635.559:   -470  90  12  658
1477471635.561:   -467  90  12  658
1477471635.564:   -478  90  12  658
1477471635.566:   -516  90  12  658
1477471635.566:   -589  90  12  658
1477471635.568:   -687  90  12  658
1477471635.569:   -775  90  12  658
1477471635.570:   -838  90  12  658
1477471635.574:   -893  90  12  658
1477471635.586:   -964  90  12  658
1477471635.586:  -1040  90  12  658
1477471635.587:  -1069  90  12  658
1477471635.587:  -1009  90  12  658
1477471635.587:   -866  90  12  658
1477471635.587:   -685  90  12  658
1477471635.590:   -488  90  12  658
1477471635.591:   -256  90  12  658
1477471635.594:     56  90  12  658
1477471635.594:    462  90  12  658
1477471635.595:    934  90  12  658
1477471635.597:   1435  90  12  658
1477471635.607:   1963  90  12  658
1477471635.608:   2536  90  12  658
1477471635.608:   3147  90  12  658
1477471635.609:   3728  90  12  658
1477471635.609:   4183  90  12  658
1477471635.610:   4478  90  12  658
1477471635.613:   4658  90  12  658
1477471635.614:   4778  90  12  658
1477471635.615:   4810  90  12  658
1477471635.617:   4653  90  12  658
1477471635.621:   4258  90  12  658
1477471635.621:   3691  90  12  658
1477471635.635:   3058  90  12  658
1477471635.636:   2365  90  12  658
1477471635.636:   1506  90  12  658
1477471635.637:    403  90  12  658
1477471635.637:   -862  90  12  658
1477471635.637:  -2091  90  12  658
1477471635.638:  -3147  90  12  658
1477471635.638:  -4030  90  12  658
1477471635.639:  -4806  90  12  658
1477471635.640:  -5462  90  12  658
1477471635.648:  -5896  90  12  658
1477471635.649:  -6021  90  12  658
1477471635.674:  -5857  90  12  658
1477471635.675:  -5498  90  12  658
1477471635.693:  -5027  90  12  658
1477471635.694:  -4480  90  12  658
1477471635.694:  -3870  90  12  658
1477471635.694:  -3241  90  12  658
1477471635.694:  -2649  90  12  658
1477471635.694:  -2131  90  12  658
1477471635.695:  -1694  90  12  658
1477471635.695:  -1340  90  12  658
1477471635.695:  -1072  90  12  658
1477471635.695:   -885  90  12  658
1477471635.695:   -749  90  12  658
1477471635.696:   -630  90  12  658
1477471635.696:   -516  90  12  658
1477471635.696:   -430  90  12  658
1477471635.697:   -401  90  12  658
1477471635.697:   -416  90  12  658
1477471635.698:   -431  90  12  658
1477471635.699:   -418  90  12  658
1477471635.699:   -396  90  12  658
1477471635.700:   -409  90  12  658
1477471635.700:   -461  90  12  658
1477471635.700:   -499  90  12  658
1477471635.701:   -472  90  12  658
1477471635.701:   -391  90  12  658
1477471635.701:   -319  90  12  658
1477471635.701:   -301  90  12  658
1477471635.702:   -313  90  12  658
1477471635.703:   -298  90  12  658
1477471635.705:   -229  90  12  658
1477471635.709:   -125  90  12  658
1477471635.710:    -13  90  12  658
1477471635.716:    104  90  12  658
1477471635.724:    227  90  12  658
1477471635.725:    335  90  12  658
1477471635.725:    393  90  12  658
1477471635.726:    384  90  12  658
1477471635.727:    328  90  12  658
1477471635.727:    263  90  12  658
1477471635.730:    212  90  12  658
1477471635.732:    178  90  12  658
1477471635.733:    161  90  12  658
1477471635.733:    167  90  12  658
1477471635.733:    200  90  12  658
1477471635.737:    263  90  12  658
1477471635.737:    351  90  12  658
1477471635.741:    450  90  12  658
1477471635.763:    538  90  12  658
1477471635.764:    598  90  12  658
1477471635.764:    635  90  12  658
1477471635.765:    669  90  12  658
1477471635.765:    713  90  12  658
1477471635.766:    755  90  12  658
1477471635.766:    772  90  12  658
1477471635.767:    765  90  12  658
1477471635.767:    759  90  12  658
1477471635.767:    777  90  12  658
1477471635.768:    812  90  12  658
1477471635.768:    848  90  12  658
1477471635.768:    888  90  12  658
1477471635.769:    955  90  12  658
1477471635.769:   1047  90  12  658
1477471635.769:   1135  90  12  658
1477471635.786:   1195  90  12  658
1477471635.786:   1243  90  12  658
1477471635.787:   1317  90  12  658
1477471635.787:   1426  90  12  658
1477471635.788:   1528  90  12  658
1477471635.788:   1572  90  12  658
1477471635.788:   1562  90  12  658
1477471635.789:   1554  90  12  658
1477471635.789:   1604  90  12  658
1477471635.792:   1718  90  12  658
1477471635.793:   1859  90  12  658
1477471635.793:   1987  90  12  658
1477471635.796:   2088  90  12  658
1477471635.798:   2164  90  12  658
1477471635.800:   2220  90  12  658
1477471635.801:   2271  90  12  658
1477471635.825:   2344  90  12  658
1477471635.826:   2464  90  12  658
1477471635.826:   2621  90  12  658
1477471635.827:   2773  90  12  658
1477471635.829:   2879  90  12  658
1477471635.830:   2932  90  12  658
1477471635.830:   2964  90  12  658
1477471635.831:   3019  90  12  658
1477471635.832:   3117  90  12  658
1477471635.832:   3241  90  12  658
1477471635.833:   3335  90  12  658
1477471635.833:   3348  90  12  658
1477471635.834:   3278  90  12  658
1477471635.837:   3191  90  12  658
1477471635.838:   3171  90  12  658
1477471635.838:   3242  90  12  658
1477471635.838:   3341  90  12  658
1477471635.838:   3382  90  12  658
1477471635.839:   3338  90  12  658
1477471635.839:   3260  90  12  658
1477471635.842:   3206  90  12  658
1477471635.846:   3191  90  12  658
1477471635.860:   3183  90  12  658
1477471635.860:   3155  90  12  658
1477471635.860:   3096  90  12  658
1477471635.860:   3014  90  12  658
1477471635.860:   2909  90  12  658
1477471635.861:   2786  90  12  655
1477471635.861:   2650  90  12  655
1477471635.861:   2509  90  12  655
1477471635.864:   2355  90  12  655
1477471635.864:   2194  90  12  655
1477471635.868:   2044  90  12  655
1477471635.869:   1919  90  12  655
1477471635.871:   1804  90  12  655
1477471635.874:   1658  90  12  655
1477471635.883:   1457  90  12  655
1477471635.884:   1223  90  12  655
1477471635.884:    998  90  12  655
1477471635.884:    795  90  12  655
1477471635.884:    590  90  12  655
1477471635.884:    363  90  12  655
1477471635.887:    124  90  12  655
1477471635.888:   -107  90  12  655
1477471635.890:   -320  90  12  655
1477471635.892:   -520  90  12  655
1477471635.893:   -702  90  12  655
1477471635.894:   -856  90  12  655
1477471635.897:   -983  90  12  655
1477471635.899:  -1102  90  12  655
1477471635.902:  -1246  90  12  655
1477471635.908:  -1421  90  12  655
1477471635.909:  -1606  90  12  655
1477471635.909:  -1767  90  12  655
1477471635.910:  -1885  90  12  655
1477471635.911:  -1969  90  12  655
1477471635.913:  -2048  90  12  655
1477471635.915:  -2150  90  12  655
1477471635.930:  -2274  90  12  655
1477471635.930:  -2386  90  12  655
1477471635.931:  -2444  90  12  655
1477471635.932:  -2437  90  12  655
1477471635.932:  -2394  90  12  655
1477471635.932:  -2352  90  12  655
1477471635.933:  -2336  90  12  655
1477471635.935:  -2342  90  12  655
1477471635.935:  -2364  90  12  655
1477471635.935:  -2394  90  12  655
1477471635.938:  -2423  90  12  655
1477471635.939:  -2440  90  12  655
1477471635.948:  -2448  90  12  655
1477471635.948:  -2468  90  12  655
1477471635.948:  -2509  90  12  655
1477471635.948:  -2549  90  12  655
1477471635.948:  -2551  90  12  655
1477471635.952:  -2505  90  12  655
1477471635.954:  -2434  90  12  655
1477471635.955:  -2366  90  12  655
1477471635.961:  -2307  90  12  655
1477471635.962:  -2242  90  12  655
1477471635.968:  -2170  90  12  655
1477471635.968:  -2110  90  12  655
1477471635.968:  -2072  90  12  655
1477471635.968:  -2044  90  12  655
1477471635.968:  -2005  90  12  655
1477471635.972:  -1963  90  12  655
1477471635.973:  -1938  90  12  655
1477471635.974:  -1941  90  12  655
1477471635.976:  -1963  90  12  655
1477471635.977:  -1998  90  12  655
1477471635.983:  -2042  90  12  655
1477471635.983:  -2092  90  12  655
1477471635.986:  -2129  90  12  655
1477471635.987:  -2134  90  12  655
1477471635.988:  -2118  90  12  655
1477471635.992:  -2114  90  12  655
1477471636.019:  -2140  90  12  655
1477471636.020:  -2172  90  12  655
1477471636.020:  -2165  90  12  655
1477471636.021:  -2108  90  12  655
1477471636.021:  -2039  90  12  655
1477471636.021:  -2003  90  12  655
1477471636.021:  -2010  90  12  655
1477471636.022:  -2032  90  12  655
1477471636.022:  -2033  90  12  655
1477471636.022:  -2002  90  12  655
1477471636.022:  -1954  90  12  655
1477471636.022:  -1911  90  12  655
1477471636.023:  -1891  90  12  655
1477471636.023:  -1898  90  12  655
1477471636.023:  -1917  90  12  655
1477471636.023:  -1920  90  12  655
1477471636.025:  -1883  90  12  655
1477471636.026:  -1820  90  12  655
1477471636.029:  -1769  90  12  655
1477471636.029:  -1751  90  12  655
1477471636.051:  -1750  90  12  655
1477471636.052:  -1721  90  12  655
1477471636.052:  -1638  90  12  655
1477471636.053:  -1524  90  12  655
1477471636.054:  -1419  90  12  655
1477471636.054:  -1341  90  12  655
1477471636.055:  -1275  90  12  655
1477471636.055:  -1201  90  12  655
1477471636.056:  -1121  90  12  655
1477471636.057:  -1053  90  12  655
1477471636.057:  -1009  90  12  655
1477471636.057:   -987  90  12  655
1477471636.057:   -977  90  12  655
1477471636.057:   -981  90  12  655
1477471636.062:   -998  90  12  655
1477471636.062:  -1024  90  12  655
1477471636.066:  -1041  90  12  655
1477471636.066:  -1032  90  12  655
1477471636.070:  -1000  90  12  655
1477471636.070:   -966  90  12  655
1477471636.070:   -942  90  12  655
1477471636.075:   -916  90  12  655
1477471636.087:   -871  90  12  655
1477471636.087:   -819  90  12  655
1477471636.087:   -798  90  12  655
1477471636.087:   -830  90  12  655
1477471636.088:   -884  90  12  655
1477471636.088:   -904  90  12  655
1477471636.088:   -872  90  12  655
1477471636.088:   -838  90  12  655
1477471636.092:   -858  90  12  655
1477471636.093:   -929  90  12  655
1477471636.094:   -989  90  12  655
1477471636.097:   -994  90  12  655
1477471636.097:   -956  90  12  655
1477471636.099:   -929  90  12  655
1477471636.102:   -946  90  12  655
1477471636.106:   -989  90  12  655
1477471636.115:  -1016  90  12  655
1477471636.116:  -1006  90  12  655
1477471636.116:   -968  90  12  655
1477471636.117:   -934  90  12  655
1477471636.118:   -935  90  12  655
1477471636.118:   -985  90  12  655
1477471636.121:  -1063  90  12  655
1477471636.122:  -1138  90  12  655
1477471636.123:  -1201  90  12  655
1477471636.124:  -1273  90  12  655
1477471636.125:  -1368  90  12  655
1477471636.128:  -1464  90  12  655
1477471636.135:  -1513  90  12  655
1477471636.135:  -1505  90  12  655
1477471636.135:  -1474  90  12  655
1477471636.139:  -1458  90  12  655
1477471636.151:  -1463  90  12  655
1477471636.151:  -1461  90  12  655
1477471636.151:  -1444  90  12  655
1477471636.152:  -1429  90  12  655
1477471636.152:  -1428  90  12  655
1477471636.152:  -1426  90  12  655
1477471636.152:  -1410  90  12  655
1477471636.152:  -1401  90  12  655
1477471636.153:  -1438  90  12  655
1477471636.156:  -1516  90  12  655
1477471636.157:  -1585  90  12  655
1477471636.161:  -1600  90  12  655
1477471636.171:  -1573  90  12  655
1477471636.220:  -1561  90  12  655
1477471636.226:  -1599  90  12  655
1477471636.226:  -1663  90  12  655
1477471636.226:  -1702  90  12  655
1477471636.226:  -1697  90  12  655
1477471636.227:  -1674  90  12  655
1477471636.227:  -1675  90  12  655
1477471636.227:  -1709  90  12  655
1477471636.227:  -1753  90  12  655
1477471636.227:  -1778  90  12  655
1477471636.227:  -1781  90  12  655
1477471636.228:  -1787  90  12  655
1477471636.228:  -1809  90  12  655
1477471636.228:  -1831  90  12  655
1477471636.228:  -1826  90  12  655
1477471636.229:  -1789  90  12  655
1477471636.229:  -1743  90  12  655
1477471636.229:  -1703  90  12  655
1477471636.229:  -1653  90  12  655
1477471636.230:  -1572  90  12  655
1477471636.230:  -1470  90  12  655
1477471636.230:  -1384  90  12  655
1477471636.230:  -1329  90  12  655
1477471636.230:  -1273  90  12  655
1477471636.230:  -1185  90  12  655
1477471636.230:  -1087  90  12  655
1477471636.231:  -1030  90  12  655
1477471636.231:  -1033  90  12  655
1477471636.231:  -1060  90  12  655
1477471636.231:  -1075  90  12  655
1477471636.231:  -1095  90  12  655
1477471636.231:  -1156  90  12  655
1477471636.232:  -1249  90  12  655
1477471636.232:  -1320  90  12  655
1477471636.232:  -1347  90  12  655
1477471636.232:  -1370  90  12  655
1477471636.234:  -1436  90  12  655
1477471636.237:  -1522  90  12  655
1477471636.240:  -1545  90  12  655
1477471636.240:  -1457  90  12  655
1477471636.244:  -1296  90  12  655
1477471636.256:  -1133  90  12  655
1477471636.256:   -994  90  12  655
1477471636.256:   -835  90  12  655
1477471636.256:   -613  90  12  655
1477471636.256:   -325  90  12  655
1477471636.256:     10  90  12  655
1477471636.258:    387  90  12  655
1477471636.258:    824  90  12  655
1477471636.260:   1337  90  12  655
1477471636.261:   1914  90  12  655
1477471636.262:   2506  90  12  655
1477471636.264:   3041  90  12  655
1477471636.268:   3459  90  12  655
1477471636.271:   3747  90  12  655
1477471636.282:   3938  90  12  655
1477471636.282:   4038  90  12  655
1477471636.282:   3985  90  12  655
1477471636.282:   3675  90  12  655
1477471636.282:   3060  90  12  655
1477471636.283:   2198  90  12  655
1477471636.285:   1184  90  12  655
1477471636.286:     58  90  12  655
1477471636.289:  -1210  90  12  655
1477471636.289:  -2626  90  12  655
1477471636.290:  -4083  90  12  655
1477471636.292:  -5405  90  12  655
1477471636.294:  -6453  90  12  655
1477471636.299:  -7186  90  12  655
1477471636.310:  -7633  90  12  655
1477471636.310:  -7813  90  12  655
1477471636.310:  -7706  90  12  655
1477471636.310:  -7286  90  12  655
1477471636.310:  -6588  90  12  655
1477471636.310:  -5737  90  12  655
1477471636.310:  -4899  90  12  655
1477471636.312:  -4183  90  12  655
1477471636.313:  -3587  90  12  655
1477471636.354:  -3050  90  12  655
1477471636.355:  -2545  90  12  655
1477471636.355:  -2125  90  12  655
1477471636.355:  -1852  90  12  655
1477471636.355:  -1707  90  12  655
1477471636.382:  -1591  90  12  655
1477471636.382:  -1426  90  12  655
1477471636.382:  -1230  90  12  655
1477471636.382:  -1067  90  12  655
1477471636.383:   -958  90  12  655
1477471636.383:   -870  90  12  655
1477471636.383:   -780  90  12  655
1477471636.383:   -732  90  12  655
1477471636.383:   -775  90  12  655
1477471636.383:   -894  90  12  655
1477471636.384:  -1010  90  12  655
1477471636.384:  -1038  90  12  655
1477471636.384:   -953  90  12  655
1477471636.384:   -786  90  12  655
1477471636.384:   -601  90  12  655
1477471636.384:   -470  90  12  655
1477471636.385:   -432  90  12  655
1477471636.385:   -472  90  12  655
1477471636.385:   -526  90  12  655
1477471636.385:   -542  90  12  655
1477471636.385:   -527  90  12  655
1477471636.385:   -525  90  12  655
1477471636.385:   -552  90  12  655
1477471636.386:   -563  90  12  655
1477471636.386:   -507  90  12  655
1477471636.386:   -383  90  12  655
1477471636.386:   -245  90  12  655
1477471636.387:   -133  90  12  655
1477471636.388:    -35  90  12  655
1477471636.388:     72  90  12  655
1477471636.388:    172  90  12  655
1477471636.388:    220  90  12  655
1477471636.389:    201  90  12  655
1477471636.390:    164  90  12  655
1477471636.392:    170  90  12  655
1477471636.394:    228  90  12  655
1477471636.404:    286  90  12  655
1477471636.404:    301  90  12  655
1477471636.404:    286  90  12  655
1477471636.405:    294  90  12  655
1477471636.405:    347  90  12  655
1477471636.405:    430  90  12  655
1477471636.408:    517  90  12  655
1477471636.409:    591  90  12  655
1477471636.414:    655  90  12  655
1477471636.414:    714  90  12  655
1477471636.424:    759  90  12  655
1477471636.424:    788  90  12  655
1477471636.424:    790  90  12  655
1477471636.424:    758  90  12  655
1477471636.425:    709  90  12  655
1477471636.427:    693  90  12  655
1477471636.428:    750  90  12  655
1477471636.432:    865  90  12  655
1477471636.435:    977  90  12  655
1477471636.435:   1046  90  12  655
1477471636.437:   1102  90  12  655
1477471636.438:   1206  90  12  655
1477471636.441:   1378  90  12  655
1477471636.444:   1564  90  12  655
1477471636.454:   1702  90  12  655
1477471636.454:   1782  90  12  655
1477471636.454:   1835  90  12  655
1477471636.455:   1882  90  12  655
1477471636.455:   1922  90  12  655
1477471636.455:   1963  90  12  655
1477471636.455:   2026  90  12  655
1477471636.457:   2114  90  12  655
1477471636.458:   2195  90  12  655
1477471636.461:   2241  90  12  655
1477471636.464:   2272  90  12  655
1477471636.466:   2341  90  12  655
1477471636.475:   2462  90  12  655
1477471636.475:   2580  90  12  655
1477471636.475:   2637  90  12  655
1477471636.476:   2633  90  12  655
1477471636.476:   2625  90  12  655
1477471636.476:   2649  90  12  655
1477471636.482:   2684  90  12  655
1477471636.483:   2687  90  12  655
1477471636.483:   2653  90  12  655
1477471636.486:   2618  90  12  655
1477471636.487:   2616  90  12  655
1477471636.488:   2645  90  12  655
1477471636.501:   2683  90  12  655
1477471636.501:   2723  90  12  655
1477471636.501:   2768  90  12  655
1477471636.501:   2812  90  12  655
1477471636.501:   2830  90  12  655
1477471636.501:   2809  90  12  655
1477471636.502:   2755  90  12  655
1477471636.504:   2691  90  12  655
1477471636.505:   2626  90  12  655
1477471636.508:   2554  90  12  655
1477471636.509:   2461  90  12  655
1477471636.514:   2342  90  12  655
1477471636.525:   2204  90  12  655
1477471636.525:   2062  90  12  655
1477471636.525:   1943  90  12  655
1477471636.526:   1859  90  12  655
1477471636.526:   1793  90  12  655
1477471636.526:   1707  90  12  655
1477471636.526:   1569  90  12  655
1477471636.528:   1390  90  12  655
1477471636.529:   1201  90  12  655
1477471636.532:   1011  90  12  655
1477471636.533:    800  90  12  655
1477471636.535:    546  90  12  662
1477471636.546:    254  90  12  662
1477471636.546:    -39  90  12  662
1477471636.546:   -305  90  12  662
1477471636.546:   -536  90  12  662
1477471636.547:   -742  90  12  662
1477471636.547:   -933  90  12  662
1477471636.549:  -1114  90  12  662
1477471636.552:  -1287  90  12  662
1477471636.555:  -1446  90  12  662
1477471636.555:  -1576  90  12  662
1477471636.569:  -1677  90  12  662
1477471636.569:  -1774  90  12  662
1477471636.569:  -1906  90  12  662
1477471636.570:  -2078  90  12  662
1477471636.570:  -2244  90  12  662
1477471636.570:  -2339  90  12  662
1477471636.570:  -2346  90  12  662
1477471636.574:  -2315  90  12  662
1477471636.574:  -2320  90  12  662
1477471636.575:  -2385  90  12  662
1477471636.577:  -2460  90  12  662
1477471636.578:  -2476  90  12  662
1477471636.580:  -2427  90  12  662
1477471636.582:  -2375  90  12  662
1477471636.590:  -2380  90  12  662
1477471636.590:  -2436  90  12  662
1477471636.590:  -2486  90  12  662
1477471636.591:  -2497  90  12  662
1477471636.592:  -2498  90  12  662
1477471636.597:  -2536  90  12  662
1477471636.598:  -2615  90  12  662
1477471636.599:  -2686  90  12  662
1477471636.601:  -2707  90  12  662
1477471636.602:  -2689  90  12  662
1477471636.604:  -2671  90  12  662
1477471636.605:  -2674  90  12  662
1477471636.615:  -2675  90  12  662
1477471636.615:  -2643  90  12  662
1477471636.615:  -2579  90  12  662
1477471636.615:  -2522  90  12  662
1477471636.619:  -2516  90  12  662
1477471636.619:  -2573  90  12  662
1477471636.623:  -2665  90  12  662
1477471636.623:  -2754  90  12  662
1477471636.624:  -2824  90  12  662
1477471636.628:  -2883  90  12  662
1477471636.640:  -2943  90  12  662
1477471636.640:  -2994  90  12  662
1477471636.640:  -3009  90  12  662
1477471636.640:  -2969  90  12  662
1477471636.640:  -2885  90  12  662
1477471636.640:  -2780  90  12  662
1477471636.642:  -2674  90  12  662
1477471636.643:  -2564  90  12  662
1477471636.645:  -2441  90  12  662
1477471636.645:  -2307  90  12  662
1477471636.649:  -2176  90  12  662
1477471636.651:  -2072  90  12  662
1477471636.664:  -2008  90  12  662
1477471636.664:  -1977  90  12  662
1477471636.664:  -1948  90  12  662
1477471636.665:  -1904  90  12  662
1477471636.665:  -1860  90  12  662
1477471636.665:  -1858  90  12  662
1477471636.665:  -1919  90  12  662
1477471636.665:  -2010  90  12  662
1477471636.670:  -2072  90  12  662
1477471636.670:  -2077  90  12  662
1477471636.672:  -2059  90  12  662
1477471636.675:  -2073  90  12  662
1477471636.675:  -2119  90  12  662
1477471636.679:  -2132  90  12  662
1477471636.688:  -2058  90  12  662
1477471636.688:  -1919  90  12  662
1477471636.689:  -1789  90  12  662
1477471636.689:  -1720  90  12  662
1477471636.691:  -1684  90  12  662
1477471636.691:  -1628  90  12  662
1477471636.693:  -1547  90  12  662
1477471636.694:  -1495  90  12  662
1477471636.695:  -1507  90  12  662
1477471636.697:  -1552  90  12  662
1477471636.698:  -1567  90  12  662
1477471636.701:  -1536  90  12  662
1477471636.711:  -1506  90  12  662
1477471636.711:  -1513  90  12  662
1477471636.711:  -1527  90  12  662
1477471636.712:  -1485  90  12  662
1477471636.712:  -1376  90  12  662
1477471636.715:  -1265  90  12  662
1477471636.715:  -1223  90  12  662
1477471636.717:  -1246  90  12  662
1477471636.718:  -1270  90  12  662
1477471636.719:  -1257  90  12  662
1477471636.730:  -1232  90  12  662
1477471636.730:  -1249  90  12  662
1477471636.730:  -1315  90  12  662
1477471636.731:  -1384  90  12  662
1477471636.732:  -1412  90  12  662
1477471636.734:  -1404  90  12  662
1477471636.734:  -1399  90  12  662
1477471636.736:  -1413  90  12  662
1477471636.738:  -1423  90  12  662
1477471636.742:  -1398  90  12  662
1477471636.749:  -1351  90  12  662
1477471636.749:  -1317  90  12  662
1477471636.749:  -1314  90  12  662
1477471636.750:  -1312  90  12  662
1477471636.750:  -1274  90  12  662
1477471636.752:  -1203  90  12  662
1477471636.756:  -1136  90  12  662
1477471636.756:  -1102  90  12  662
1477471636.758:  -1097  90  12  662
1477471636.759:  -1106  90  12  662
1477471636.768:  -1129  90  12  662
1477471636.769:  -1173  90  12  662
1477471636.769:  -1227  90  12  662
1477471636.770:  -1265  90  12  662
1477471636.770:  -1279  90  12  662
1477471636.772:  -1292  90  12  662
1477471636.773:  -1333  90  12  662
1477471636.776:  -1398  90  12  662
1477471636.786:  -1449  90  12  662
1477471636.786:  -1465  90  12  662
1477471636.787:  -1460  90  12  662
1477471636.787:  -1462  90  12  662
1477471636.787:  -1489  90  12  662
1477471636.788:  -1543  90  12  662
1477471636.789:  -1615  90  12  662
1477471636.790:  -1691  90  12  662
1477471636.793:  -1754  90  12  662
1477471636.797:  -1796  90  12  662
1477471636.803:  -1827  90  12  662
1477471636.803:  -1871  90  12  662
1477471636.803:  -1939  90  12  662
1477471636.803:  -2018  90  12  662
1477471636.806:  -2078  90  12  662
1477471636.807:  -2103  90  12  662
1477471636.812:  -2096  90  12  662
1477471636.812:  -2059  90  12  662
1477471636.815:  -1997  90  12  662
1477471636.816:  -1926  90  12  662
1477471636.817:  -1877  90  12  662
1477471636.818:  -1864  90  12  662
1477471636.821:  -1862  90  12  662
1477471636.825:  -1821  90  12  662
1477471636.830:  -1724  90  12  662
1477471636.830:  -1610  90  12  662
1477471636.831:  -1545  90  12  662
1477471636.831:  -1547  90  12  662
1477471636.832:  -1569  90  12  662
1477471636.834:  -1544  90  12  662
1477471636.882:  -1464  90  12  662
1477471636.882:  -1385  90  12  662
1477471636.882:  -1377  90  12  662
1477471636.882:  -1442  90  12  662
1477471636.882:  -1511  90  12  662
1477471636.883:  -1501  90  12  662
1477471636.883:  -1404  90  12  662
1477471636.883:  -1284  90  12  662
1477471636.883:  -1214  90  12  662
1477471636.883:  -1201  90  12  662
1477471636.883:  -1196  90  12  662
1477471636.883:  -1163  90  12  662
1477471636.884:  -1123  90  12  662
1477471636.884:  -1137  90  12  662
1477471636.884:  -1219  90  12  662
1477471636.884:  -1309  90  12  662
1477471636.884:  -1328  90  12  662
1477471636.884:  -1262  90  12  662
1477471636.884:  -1173  90  12  662
1477471636.885:  -1126  90  12  662
1477471636.885:  -1120  90  12  662
1477471636.885:  -1091  90  12  662
1477471636.885:   -993  90  12  662
1477471636.885:   -865  90  12  662
1477471636.885:   -793  90  12  662
1477471636.886:   -833  90  12  662
1477471636.889:   -948  90  12  662
1477471636.889:  -1051  90  12  662
1477471636.898:  -1090  90  12  662
1477471636.898:  -1078  90  12  662
1477471636.898:  -1056  90  12  662
1477471636.898:  -1019  90  12  662
1477471636.899:   -922  90  12  662
1477471636.900:   -731  90  12  662
1477471636.903:   -471  90  12  662
1477471636.908:   -186  90  12  662
1477471636.908:    131  90  12  662
1477471636.909:    536  90  12  662
1477471636.910:   1050  90  12  662
1477471636.912:   1619  90  12  662
1477471636.922:   2169  90  12  662
1477471636.922:   2690  90  12  662
1477471636.922:   3229  90  12  662
1477471636.922:   3793  90  12  662
1477471636.923:   4301  90  12  662
1477471636.925:   4656  90  12  662
1477471636.952:   4852  90  12  662
1477471636.952:   4960  90  12  662
1477471636.955:   5004  90  12  662
1477471636.959:   4887  90  12  662
1477471636.964:   4482  90  12  662
1477471636.964:   3777  90  12  662
1477471636.965:   2873  90  12  662
1477471636.965:   1854  90  12  662
1477471636.965:    699  90  12  662
1477471636.965:   -647  90  12  662
1477471636.966:  -2111  90  12  662
1477471636.966:  -3479  90  12  662
1477471636.966:  -4555  90  12  662
1477471636.966:  -5308  90  12  662
1477471636.966:  -5832  90  12  662
1477471636.966:  -6178  90  12  662
1477471636.967:  -6272  90  12  662
1477471636.967:  -6016  90  12  662
1477471636.968:  -5447  90  12  662
1477471636.968:  -4750  90  12  662
1477471636.968:  -4116  90  12  662
1477471636.969:  -3604  90  12  662
1477471636.972:  -3145  90  12  662
1477471636.972:  -2671  90  12  662
1477471636.983:  -2208  90  12  662
1477471636.983:  -1839  90  12  662
1477471636.983:  -1613  90  12  662
1477471636.984:  -1491  90  12  662
1477471636.984:  -1384  90  12  662
1477471636.984:  -1230  90  12  662
1477471636.986:  -1030  90  12  662
1477471636.992:   -823  90  12  662
1477471637.001:   -642  90  12  662
1477471637.001:   -503  90  12  662
1477471637.001:   -413  90  12  662
1477471637.002:   -384  90  12  662
1477471637.002:   -407  90  12  662
1477471637.002:   -443  90  12  662
1477471637.004:   -441  90  12  662
1477471637.004:   -377  90  12  662
1477471637.006:   -273  90  12  662
1477471637.007:   -171  90  12  662
1477471637.008:    -91  90  12  662
1477471637.012:    -18  90  12  662
1477471637.020:     68  90  12  662
1477471637.021:    160  90  12  662
1477471637.021:    229  90  12  662
1477471637.021:    263  90  12  662
1477471637.022:    273  90  12  662
1477471637.024:    280  90  12  662
1477471637.025:    300  90  12  662
1477471637.027:    336  90  12  662
1477471637.028:    386  90  12  662
1477471637.031:    447  90  12  662
1477471637.032:    502  90  12  662
1477471637.036:    531  90  12  662
1477471637.046:    529  90  12  662
1477471637.046:    512  90  12  662
1477471637.047:    503  90  12  662
1477471637.047:    515  90  12  662
1477471637.047:    547  90  12  662
1477471637.047:    598  90  12  662
1477471637.050:    661  90  12  662
1477471637.050:    707  90  12  662
1477471637.052:    704  90  12  662
1477471637.054:    658  90  12  662
1477471637.068:    629  90  12  662
1477471637.068:    683  90  12  662
1477471637.068:    802  90  12  662
1477471637.068:    893  90  12  662
1477471637.068:    889  90  12  662
1477471637.068:    836  90  12  662
1477471637.069:    864  90  12  662
1477471637.069:   1037  90  12  662
1477471637.072:   1269  90  12  662
1477471637.073:   1406  90  12  662
1477471637.077:   1384  90  12  662
1477471637.078:   1300  90  12  662
1477471637.079:   1285  90  12  662
1477471637.080:   1366  90  12  662
1477471637.092:   1447  90  12  662
1477471637.092:   1438  90  12  662
1477471637.093:   1369  90  12  662
1477471637.093:   1358  90  12  662
1477471637.093:   1475  90  12  662
1477471637.095:   1669  90  12  662
1477471637.095:   1834  90  12  662
1477471637.097:   1928  90  12  662
1477471637.099:   1997  90  12  662
1477471637.100:   2113  90  12  662
1477471637.105:   2277  90  12  662
1477471637.105:   2421  90  12  662
1477471637.114:   2490  90  12  662
1477471637.115:   2505  90  12  662
1477471637.115:   2539  90  12  662
1477471637.115:   2641  90  12  662
1477471637.115:   2788  90  12  662
1477471637.119:   2908  90  12  662
1477471637.119:   2957  90  12  662
1477471637.120:   2969  90  12  662
1477471637.122:   3016  90  12  662
1477471637.124:   3137  90  12  662
1477471637.136:   3294  90  12  662
1477471637.137:   3402  90  12  662
1477471637.137:   3419  90  12  662
1477471637.137:   3386  90  12  662
1477471637.137:   3385  90  12  662
1477471637.138:   3453  90  12  662
1477471637.139:   3545  90  12  662
1477471637.140:   3579  90  12  662
1477471637.142:   3527  90  12  662
1477471637.146:   3446  90  12  662
1477471637.157:   3421  90  12  662
1477471637.157:   3475  90  12  662
1477471637.157:   3547  90  12  662
1477471637.158:   3564  90  12  662
1477471637.158:   3518  90  12  662
1477471637.186:   3466  90  12  662
1477471637.186:   3456  90  12  662
1477471637.187:   3473  90  12  662
1477471637.189:   3459  90  12  662
1477471637.191:   3391  90  12  662
1477471637.201:   3305  90  12  662
1477471637.201:   3243  90  12  662
1477471637.201:   3195  90  12  662
1477471637.202:   3107  90  12  662
1477471637.202:   2953  90  12  662
1477471637.202:   2775  90  12  662
1477471637.202:   2634  90  12  662
1477471637.203:   2541  90  12  662
1477471637.203:   2433  90  12  662
1477471637.203:   2256  90  12  662
1477471637.203:   2023  90  12  662
1477471637.203:   1804  90  12  662
1477471637.204:   1640  90  12  662
1477471637.204:   1506  90  12  662
1477471637.204:   1344  90  12  662
1477471637.204:   1130  90  12  662
1477471637.205:    903  89  11  667
1477471637.205:    712  89  11  667
1477471637.206:    566  89  11  667
1477471637.208:    425  89  11  667
1477471637.208:    247  89  11  667
1477471637.213:     37  89  11  667
1477471637.222:   -162  89  11  667
1477471637.222:   -314  89  11  667
1477471637.222:   -432  89  11  667
1477471637.222:   -563  89  11  667
1477471637.222:   -748  89  11  667
1477471637.223:   -974  89  11  667
1477471637.224:  -1185  89  11  667
1477471637.226:  -1338  89  11  667
1477471637.227:  -1451  89  11  667
1477471637.228:  -1569  89  11  667
1477471637.229:  -1712  89  11  667
1477471637.233:  -1845  89  11  667
1477471637.246:  -1919  89  11  667
1477471637.246:  -1929  89  11  667
1477471637.246:  -1914  89  11  667
1477471637.246:  -1905  89  11  667
1477471637.246:  -1883  89  11  667
1477471637.247:  -1814  89  11  667
1477471637.249:  -1698  89  11  667
1477471637.249:  -1570  89  11  667
1477471637.251:  -1466  89  11  667
1477471637.252:  -1394  89  11  667
1477471637.255:  -1345  89  11  667
1477471637.255:  -1328  89  11  667
1477471637.267:  -1367  89  11  667
1477471637.267:  -1461  89  11  667
1477471637.268:  -1574  89  11  667
1477471637.268:  -1664  89  11  667
1477471637.268:  -1721  89  11  667
1477471637.268:  -1759  89  11  667
1477471637.268:  -1793  89  11  667
1477471637.270:  -1813  89  11  667
1477471637.274:  -1798  89  11  667
1477471637.275:  -1738  89  11  667
1477471637.276:  -1641  89  11  667
1477471637.278:  -1540  89  11  667
1477471637.282:  -1475  89  11  667
1477471637.282:  -1468  89  11  667
1477471637.291:  -1496  89  11  667
1477471637.291:  -1497  89  11  667
1477471637.291:  -1431  89  11  667
1477471637.293:  -1321  89  11  667
1477471637.293:  -1226  89  11  667
1477471637.295:  -1182  89  11  667
1477471637.296:  -1162  89  11  667
1477471637.297:  -1115  89  11  667
1477471637.300:  -1030  89  11  667
1477471637.302:   -945  89  11  667
1477471637.311:   -905  89  11  667
1477471637.311:   -909  89  11  667
1477471637.311:   -922  89  11  667
1477471637.311:   -915  89  11  667
1477471637.311:   -891  89  11  667
1477471637.315:   -864  89  11  667
1477471637.315:   -845  89  11  667
1477471637.317:   -824  89  11  667
1477471637.321:   -795  89  11  667
1477471637.354:   -764  89  11  667
1477471637.354:   -745  89  11  667
1477471637.355:   -750  89  11  667
1477471637.355:   -771  89  11  667
1477471637.356:   -797  89  11  667
1477471637.367:   -824  89  11  667
1477471637.367:   -854  89  11  667
1477471637.367:   -886  89  11  667
1477471637.367:   -897  89  11  667
1477471637.367:   -881  89  11  667
1477471637.367:   -868  89  11  667
1477471637.367:   -900  89  11  667
1477471637.368:   -971  89  11  667
1477471637.368:  -1020  89  11  667
1477471637.368:   -998  89  11  667
1477471637.368:   -939  89  11  667
1477471637.368:   -918  89  11  667
1477471637.368:   -953  89  11  667
1477471637.369:   -968  89  11  667
1477471637.369:   -888  89  11  667
1477471637.369:   -748  89  11  667
1477471637.369:   -661  89  11  667
1477471637.369:   -674  89  11  667
1477471637.369:   -712  89  11  667
1477471637.371:   -676  89  11  667
1477471637.371:   -577  89  11  667
1477471637.372:   -516  89  11  667
1477471637.375:   -545  89  11  667
1477471637.376:   -592  89  11  667
1477471637.379:   -558  89  11  667
1477471637.380:   -446  89  11  667
1477471637.384:   -356  89  11  667
1477471637.384:   -357  89  11  667
1477471637.386:   -395  89  11  667
1477471637.388:   -369  89  11  667
1477471637.396:   -255  89  11  667
1477471637.397:   -142  89  11  667
1477471637.397:   -126  89  11  667
1477471637.398:   -211  89  11  667
1477471637.398:   -311  89  11  667
1477471637.401:   -344  89  11  667
1477471637.402:   -310  89  11  667
1477471637.407:   -269  89  11  667
1477471637.417:   -272  89  11  667
1477471637.418:   -307  89  11  667
1477471637.418:   -327  89  11  667
1477471637.418:   -305  89  11  667
1477471637.418:   -263  89  11  667
1477471637.418:   -249  89  11  667
1477471637.421:   -278  89  11  667
1477471637.422:   -323  89  11  667
1477471637.423:   -348  89  11  667
1477471637.423:   -346  89  11  667
1477471637.425:   -342  89  11  667
1477471637.427:   -347  89  11  667
1477471637.430:   -339  89  11  667
1477471637.434:   -287  89  11  667
1477471637.435:   -198  89  11  667
1477471637.436:   -123  89  11  667
1477471637.446:   -120  89  11  667
1477471637.446:   -190  89  11  667
1477471637.447:   -281  89  11  667
1477471637.447:   -332  89  11  667
1477471637.448:   -330  89  11  667
1477471637.448:   -313  89  11  667
1477471637.450:   -322  89  11  667
1477471637.451:   -353  89  11  667
1477471637.452:   -365  89  11  667
1477471637.455:   -336  89  11  667
1477471637.463:   -290  89  11  667
1477471637.463:   -271  89  11  667
1477471637.463:   -287  89  11  667
1477471637.463:   -313  89  11  667
1477471637.464:   -322  89  11  667
1477471637.466:   -326  89  11  667
1477471637.470:   -356  89  11  667
1477471637.471:   -413  89  11  667
1477471637.481:   -465  89  11  667
1477471637.481:   -477  89  11  667
1477471637.482:   -459  89  11  667
1477471637.482:   -452  89  11  667
1477471637.482:   -474  89  11  667
1477471637.484:   -502  89  11  667
1477471637.485:   -499  89  11  667
1477471637.486:   -465  89  11  667
1477471637.488:   -437  89  11  667
1477471637.491:   -454  89  11  667
1477471637.494:   -515  89  11  667
1477471637.495:   -589  89  11  667
1477471637.496:   -654  89  11  667
1477471637.497:   -710  89  11  667
1477471637.513:   -766  89  11  667
1477471637.567:   -822  89  11  667
1477471637.581:   -867  89  11  667
1477471637.581:   -895  89  11  667
1477471637.581:   -912  89  11  667
1477471637.581:   -923  89  11  667
1477471637.582:   -929  89  11  667
1477471637.582:   -928  89  11  667
1477471637.582:   -927  89  11  667
1477471637.582:   -931  89  11  667
1477471637.583:   -939  89  11  667
1477471637.583:   -941  89  11  667
1477471637.583:   -939  89  11  667
1477471637.583:   -938  89  11  667
1477471637.583:   -934  89  11  667
1477471637.583:   -904  89  11  667
1477471637.583:   -837  89  11  667
1477471637.584:   -750  89  11  667
1477471637.584:   -672  89  11  667
1477471637.584:   -612  89  11  667
1477471637.584:   -551  89  11  667
1477471637.584:   -486  89  11  667
1477471637.585:   -450  89  11  667
1477471637.585:   -485  89  11  667
1477471637.585:   -582  89  11  667
1477471637.585:   -677  89  11  667
1477471637.585:   -725  89  11  667
1477471637.585:   -746  89  11  667
1477471637.585:   -786  89  11  667
1477471637.586:   -836  89  11  667
1477471637.586:   -818  89  11  667
1477471637.586:   -663  89  11  667
1477471637.586:   -392  89  11  667
1477471637.588:    -96  89  11  667
1477471637.588:    168  89  11  667
1477471637.588:    438  89  11  667
1477471637.601:    799  89  11  667
1477471637.602:   1283  89  11  667
1477471637.603:   1841  89  11  667
1477471637.604:   2412  89  11  667
1477471637.604:   2976  89  11  667
1477471637.605:   3541  89  11  667
1477471637.605:   4070  89  11  667
1477471637.607:   4491  89  11  667
1477471637.607:   4769  89  11  667
1477471637.608:   4953  89  11  667
1477471637.609:   5104  89  11  667
1477471637.609:   5200  89  11  667
1477471637.610:   5144  89  11  667
1477471637.611:   4884  89  11  667
1477471637.611:   4473  89  11  667
1477471637.612:   3995  89  11  667
1477471637.624:   3422  89  11  667
1477471637.625:   2634  89  11  667
1477471637.625:   1585  89  11  667
1477471637.626:    404  89  11  667
1477471637.628:   -712  89  11  667
1477471637.628:  -1685  89  11  667
1477471637.634:  -2591  89  11  667
1477471637.634:  -3494  89  11  667
1477471637.644:  -4295  89  11  667
1477471637.644:  -4800  89  11  667
1477471637.645:  -4907  89  11  667
1477471637.646:  -4695  89  11  667
1477471637.647:  -4331  89  11  667
1477471637.647:  -3917  89  11  667
1477471637.648:  -3456  89  11  667
1477471637.648:  -2928  89  11  667
1477471637.648:  -2359  89  11  667
1477471637.649:  -1807  89  11  667
1477471637.649:  -1323  89  11  667
1477471637.650:   -934  89  11  667
1477471637.650:   -658  89  11  667
1477471637.650:   -490  89  11  667
1477471637.651:   -380  89  11  667
1477471637.651:   -255  89  11  667
1477471637.651:    -76  89  11  667
1477471637.654:    128  89  11  667
1477471637.665:    275  89  11  667
1477471637.666:    313  89  11  667
1477471637.667:    261  89  11  667
1477471637.667:    189  89  11  667
1477471637.668:    158  89  11  667
1477471637.669:    174  89  11  667
1477471637.669:    194  89  11  667
1477471637.670:    188  89  11  667
1477471637.670:    166  89  11  667
1477471637.673:    167  89  11  667
1477471637.673:    208  89  11  667
1477471637.675:    260  89  11  667
1477471637.688:    284  89  11  667
1477471637.688:    262  89  11  667
1477471637.688:    215  89  11  667
1477471637.688:    173  89  11  667
1477471637.688:    158  89  11  667
1477471637.689:    180  89  11  667
1477471637.689:    249  89  11  667
1477471637.692:    355  89  11  667
1477471637.696:    459  89  11  667
1477471637.697:    523  89  11  667
1477471637.698:    543  89  11  667
1477471637.699:    559  89  11  667
1477471637.700:    615  89  11  667
1477471637.702:    709  89  11  667
1477471637.707:    796  89  11  667
1477471637.708:    838  89  11  667
1477471637.709:    848  89  11  667
1477471637.710:    867  89  11  667
1477471637.736:    919  89  11  667
1477471637.737:    980  89  11  667
1477471637.737:   1009  89  11  667
1477471637.737:    989  89  11  667
1477471637.737:    943  89  11  667
1477471637.738:    911  89  11  667
1477471637.738:    910  89  11  667
1477471637.738:    929  89  11  667
1477471637.738:    955  89  11  667
1477471637.738:    998  89  11  667
1477471637.738:   1084  89  11  667
1477471637.739:   1219  89  11  667
1477471637.739:   1367  89  11  667
1477471637.739:   1481  89  11  667
1477471637.742:   1553  89  11  667
1477471637.742:   1613  89  11  667
1477471637.743:   1695  89  11  667
1477471637.745:   1795  89  11  667
1477471637.754:   1888  89  11  667
1477471637.755:   1962  89  11  667
1477471637.755:   2029  89  11  667
1477471637.755:   2107  89  11  667
1477471637.755:   2195  89  11  667
1477471637.757:   2276  89  11  667
1477471637.781:   2349  89  11  667
1477471637.781:   2420  89  11  667
1477471637.782:   2474  89  11  667
1477471637.782:   2482  89  11  667
1477471637.782:   2450  89  11  667
1477471637.783:   2432  89  11  667
1477471637.785:   2484  89  11  667
1477471637.785:   2595  89  11  667
1477471637.786:   2683  89  11  667
1477471637.787:   2684  89  11  667
1477471637.787:   2631  89  11  667
1477471637.788:   2621  89  11  667
1477471637.788:   2706  89  11  667
1477471637.788:   2827  89  11  667
1477471637.788:   2885  89  11  667
1477471637.789:   2861  89  11  667
1477471637.791:   2841  89  11  667
1477471637.792:   2919  89  11  667
1477471637.803:   3085  89  11  667
1477471637.804:   3234  89  11  667
1477471637.804:   3287  89  11  667
1477471637.804:   3270  89  11  667
1477471637.804:   3277  89  11  667
1477471637.804:   3357  89  11  667
1477471637.805:   3465  89  11  667
1477471637.810:   3522  89  11  667
1477471637.810:   3503  89  11  667
1477471637.813:   3453  89  11  667
1477471637.814:   3432  89  11  667
1477471637.819:   3456  89  11  667
1477471637.838:   3492  89  11  667
1477471637.838:   3502  89  11  667
1477471637.838:   3475  89  11  667
1477471637.838:   3425  89  11  667
1477471637.839:   3370  89  11  667
1477471637.839:   3317  89  11  667
1477471637.839:   3255  89  11  667
1477471637.840:   3164  89  11  667
1477471637.840:   3033  89  11  667
1477471637.840:   2875  89  11  667
1477471637.840:   2711  89  11  667
1477471637.841:   2547  89  11  667
1477471637.841:   2369  89  11  667
1477471637.844:   2166  89  11  667
1477471637.846:   1949  89  11  667
1477471637.847:   1739  89  11  667
1477471637.851:   1537  89  11  667
1477471637.852:   1318  89  11  665
1477471637.853:   1059  89  11  665
1477471637.854:    778  89  11  665
1477471637.858:    522  89  11  665
1477471637.859:    320  89  11  665
1477471637.861:    159  89  11  665
1477471637.871:      9  89  11  665
1477471637.888:   -140  89  11  665
1477471637.888:   -267  89  11  665
1477471637.889:   -360  89  11  665
1477471637.889:   -435  89  11  665
1477471637.890:   -530  89  11  665
1477471637.890:   -656  89  11  665
1477471637.890:   -792  89  11  665
1477471637.891:   -909  89  11  665
1477471637.891:  -1011  89  11  665
1477471637.892:  -1122  89  11  665
1477471637.893:  -1254  89  11  665
1477471637.893:  -1383  89  11  665
1477471637.894:  -1470  89  11  665
1477471637.895:  -1503  89  11  665
1477471637.896:  -1508  89  11  665
1477471637.896:  -1519  89  11  665
1477471637.897:  -1543  89  11  665
1477471637.898:  -1562  89  11  665
1477471637.901:  -1562  89  11  665
1477471637.902:  -1560  89  11  665
1477471637.909:  -1578  89  11  665
1477471637.909:  -1616  89  11  665
1477471637.920:  -1644  89  11  665
1477471637.920:  -1641  89  11  665
1477471637.921:  -1621  89  11  665
1477471637.921:  -1608  89  11  665
1477471637.921:  -1606  89  11  665
1477471637.922:  -1590  89  11  665
1477471637.922:  -1543  89  11  665
1477471637.923:  -1480  89  11  665
1477471637.925:  -1425  89  11  665
1477471637.926:  -1379  89  11  665
1477471637.928:  -1322  89  11  665
1477471637.930:  -1250  89  11  665
1477471637.934:  -1190  89  11  665
1477471637.935:  -1166  89  11  665
1477471637.936:  -1169  89  11  665
1477471637.937:  -1162  89  11  665
1477471637.940:  -1134  89  11  665
1477471637.945:  -1112  89  11  665
1477471637.956:  -1128  89  11  665
1477471637.956:  -1171  89  11  665
1477471637.956:  -1197  89  11  665
1477471637.957:  -1175  89  11  665
1477471637.957:  -1120  89  11  665
1477471637.957:  -1070  89  11  665
1477471637.957:  -1048  89  11  665
1477471637.958:  -1049  89  11  665
1477471637.962:  -1059  89  11  665
1477471637.962:  -1071  89  11  665
1477471637.963:  -1071  89  11  665
1477471637.966:  -1037  89  11  665
1477471637.968:   -963  89  11  665
1477471637.969:   -876  89  11  665
1477471637.970:   -811  89  11  665
1477471637.973:   -769  89  11  665
1477471637.974:   -706  89  11  665
1477471637.977:   -592  89  11  665
1477471637.980:   -460  89  11  665
1477471637.981:   -387  89  11  665
1477471637.982:   -416  89  11  665
1477471637.984:   -507  89  11  665
1477471637.998:   -583  89  11  665
1477471637.998:   -608  89  11  665
1477471637.998:   -619  89  11  665
1477471637.998:   -671  89  11  665
1477471637.998:   -774  89  11  665
1477471637.999:   -880  89  11  665
1477471637.999:   -943  89  11  665
1477471638.003:   -967  89  11  665
1477471638.003:   -988  89  11  665
1477471638.004:  -1027  89  11  665
1477471638.007:  -1063  89  11  665
1477471638.008:  -1067  89  11  665
1477471638.018:  -1045  89  11  665
1477471638.018:  -1029  89  11  665
1477471638.018:  -1037  89  11  665
1477471638.018:  -1044  89  11  665
1477471638.021:  -1025  89  11  665
1477471638.021:   -991  89  11  665
1477471638.025:   -982  89  11  665
1477471638.025:  -1019  89  11  665
1477471638.030:  -1067  89  11  665
1477471638.031:  -1076  89  11  665
1477471638.032:  -1035  89  11  665
1477471638.034:   -989  89  11  665
1477471638.035:   -982  89  11  665
1477471638.037:  -1019  89  11  665
1477471638.038:  -1065  89  11  665
1477471638.046:  -1077  89  11  665
1477471638.060:  -1037  89  11  665
1477471638.061:   -950  89  11  665
1477471638.061:   -834  89  11  665
1477471638.061:   -712  89  11  665
1477471638.061:   -597  89  11  665
1477471638.061:   -485  89  11  665
1477471638.061:   -368  89  11  665
1477471638.062:   -251  89  11  665
1477471638.062:   -162  89  11  665
1477471638.063:   -125  89  11  665
1477471638.063:   -128  89  11  665
1477471638.065:   -142  89  11  665
1477471638.066:   -150  89  11  665
1477471638.067:   -172  89  11  665
1477471638.070:   -229  89  11  665
1477471638.071:   -304  89  11  665
1477471638.075:   -346  89  11  665
1477471638.075:   -324  89  11  665
1477471638.080:   -260  89  11  665
1477471638.080:   -201  89  11  665
1477471638.093:   -175  89  11  665
1477471638.093:   -170  89  11  665
1477471638.093:   -159  89  11  665
1477471638.094:   -126  89  11  665
1477471638.094:    -79  89  11  665
1477471638.094:    -37  89  11  665
1477471638.094:    -23  89  11  665
1477471638.098:    -43  89  11  665
1477471638.098:    -84  89  11  665
1477471638.100:   -115  89  11  665
1477471638.101:   -113  89  11  665
1477471638.104:    -92  89  11  665
1477471638.107:    -95  89  11  665
1477471638.107:   -149  89  11  665
1477471638.111:   -235  89  11  665
1477471638.111:   -313  89  11  665
1477471638.127:   -369  89  11  665
1477471638.129:   -423  89  11  665
1477471638.129:   -494  89  11  665
1477471638.130:   -567  89  11  665
1477471638.131:   -610  89  11  665
1477471638.132:   -622  89  11  665
1477471638.132:   -628  89  11  665
1477471638.133:   -643  89  11  665
1477471638.133:   -649  89  11  665
1477471638.134:   -615  89  11  665
1477471638.135:   -550  89  11  665
1477471638.136:   -498  89  11  665
1477471638.150:   -491  89  11  665
1477471638.150:   -516  89  11  665
1477471638.150:   -536  89  11  665
1477471638.150:   -546  89  11  665
1477471638.151:   -569  89  11  665
1477471638.151:   -623  89  11  665
1477471638.151:   -689  89  11  665
1477471638.151:   -731  89  11  665
1477471638.152:   -732  89  11  665
1477471638.154:   -697  89  11  665
1477471638.223:   -644  89  11  665
1477471638.224:   -583  89  11  665
1477471638.224:   -529  89  11  665
1477471638.224:   -497  89  11  665
1477471638.224:   -490  89  11  665
1477471638.224:   -485  89  11  665
1477471638.224:   -457  89  11  665
1477471638.224:   -408  89  11  665
1477471638.225:   -374  89  11  665
1477471638.225:   -389  89  11  665
1477471638.225:   -448  89  11  665
1477471638.225:   -506  89  11  665
1477471638.225:   -535  89  11  665
1477471638.225:   -539  89  11  665
1477471638.225:   -546  89  11  665
1477471638.225:   -576  89  11  665
1477471638.226:   -624  89  11  665
1477471638.226:   -672  89  11  665
1477471638.226:   -704  89  11  665
1477471638.226:   -715  89  11  665
1477471638.226:   -705  89  11  665
1477471638.228:   -680  89  11  665
1477471638.228:   -644  89  11  665
1477471638.228:   -601  89  11  665
1477471638.228:   -546  89  11  665
1477471638.237:   -479  89  11  665
1477471638.237:   -410  89  11  665
1477471638.238:   -363  89  11  665
1477471638.241:   -357  89  11  665
1477471638.242:   -389  89  11  665
1477471638.245:   -449  89  11  665
1477471638.245:   -526  89  11  665
1477471638.245:   -616  89  11  665
1477471638.245:   -716  89  11  665
1477471638.268:   -817  89  11  665
1477471638.268:   -892  89  11  665
1477471638.269:   -902  89  11  665
1477471638.269:   -812  89  11  665
1477471638.269:   -622  89  11  665
1477471638.269:   -378  89  11  665
1477471638.270:   -130  89  11  665
1477471638.270:    133  89  11  665
1477471638.270:    479  89  11  665
1477471638.271:    961  89  11  665
1477471638.271:   1536  89  11  665
1477471638.271:   2111  89  11  665
1477471638.272:   2658  89  11  665
1477471638.272:   3248  89  11  665
1477471638.272:   3929  89  11  665
1477471638.273:   4598  89  11  665
1477471638.273:   5067  89  11  665
1477471638.274:   5275  89  11  665
1477471638.275:   5372  89  11  665
1477471638.275:   5540  89  11  665
1477471638.280:   5743  89  11  665
1477471638.280:   5760  89  11  665
1477471638.281:   5452  89  11  665
1477471638.281:   4948  89  11  665
1477471638.282:   4467  89  11  665
1477471638.282:   4027  89  11  665
1477471638.282:   3402  89  11  665
1477471638.282:   2408  89  11  665
1477471638.282:   1148  89  11  665
1477471638.282:    -82  89  11  665
1477471638.297:  -1108  89  11  665
1477471638.297:  -2008  89  11  665
1477471638.298:  -2916  89  11  665
1477471638.298:  -3770  89  11  665
1477471638.298:  -4325  89  11  665
1477471638.298:  -4420  89  11  665
1477471638.298:  -4137  89  11  665
1477471638.298:  -3700  89  11  665
1477471638.298:  -3261  89  11  665
1477471638.303:  -2811  89  11  665
1477471638.305:  -2283  89  11  665
1477471638.305:  -1694  89  11  665
1477471638.306:  -1146  89  11  665
1477471638.307:   -727  89  11  665
1477471638.310:   -442  89  11  665
1477471638.311:   -240  89  11  665
1477471638.324:    -79  89  11  665
1477471638.324:     55  89  11  665
1477471638.325:    167  89  11  665
1477471638.325:    274  89  11  665
1477471638.325:    393  89  11  665
1477471638.325:    522  89  11  665
1477471638.326:    636  89  11  665
1477471638.327:    706  89  11  665
1477471638.363:    720  89  11  665
1477471638.363:    696  89  11  665
1477471638.371:    663  89  11  665
1477471638.372:    648  89  11  665
1477471638.372:    669  89  11  665
1477471638.372:    723  89  11  665
1477471638.373:    794  89  11  665
1477471638.373:    869  89  11  665
1477471638.374:    928  89  11  665
1477471638.374:    953  89  11  665
1477471638.375:    948  89  11  665
1477471638.375:    946  89  11  665
1477471638.376:    991  89  11  665
1477471638.377:   1087  89  11  665
1477471638.377:   1176  89  11  665
1477471638.377:   1189  89  11  665
1477471638.391:   1135  89  11  665
1477471638.392:   1095  89  11  665
1477471638.393:   1132  89  11  665
1477471638.394:   1203  89  11  665
1477471638.394:   1208  89  11  665
1477471638.396:   1123  89  11  665
1477471638.397:   1039  89  11  665
1477471638.397:   1044  89  11  665
1477471638.397:   1121  89  11  665
1477471638.398:   1178  89  11  665
1477471638.398:   1175  89  11  665
1477471638.398:   1171  89  11  665
1477471638.398:   1236  89  11  665
1477471638.398:   1348  89  11  665
1477471638.399:   1424  89  11  665
1477471638.399:   1422  89  11  665
1477471638.399:   1381  89  11  665
1477471638.399:   1351  89  11  665
1477471638.400:   1321  89  11  665
1477471638.401:   1255  89  11  665
1477471638.401:   1156  89  11  665
1477471638.402:   1071  89  11  665
1477471638.404:   1028  89  11  665
1477471638.405:   1004  89  11  665
1477471638.408:    979  89  11  665
1477471638.412:    974  89  11  665
1477471638.416:   1036  89  11  665
1477471638.417:   1171  89  11  665
1477471638.417:   1325  89  11  665
1477471638.418:   1451  89  11  665
1477471638.418:   1547  89  11  665
1477471638.423:   1641  89  11  665
1477471638.424:   1746  89  11  665
1477471638.427:   1853  89  11  665
1477471638.442:   1947  89  11  665
1477471638.442:   2039  89  11  665
1477471638.442:   2139  89  11  665
1477471638.442:   2243  89  11  665
1477471638.443:   2338  89  11  665
1477471638.443:   2422  89  11  665
1477471638.443:   2515  89  11  665
1477471638.443:   2634  89  11  665
1477471638.444:   2772  89  11  665
1477471638.444:   2900  89  11  665
1477471638.446:   2998  89  11  665
1477471638.448:   3072  89  11  665
1477471638.451:   3140  89  11  665
1477471638.455:   3222  89  11  665
1477471638.462:   3317  89  11  665
1477471638.462:   3409  89  11  665
1477471638.462:   3473  89  11  665
1477471638.462:   3497  89  11  665
1477471638.464:   3493  89  11  665
1477471638.464:   3488  89  11  665
1477471638.468:   3504  89  11  665
1477471638.469:   3533  89  11  665
1477471638.472:   3548  89  11  665
1477471638.473:   3529  89  11  665
1477471638.484:   3495  89  11  665
1477471638.484:   3476  89  11  665
1477471638.485:   3490  89  11  665
1477471638.485:   3516  89  11  665
1477471638.486:   3527  89  11  665
1477471638.486:   3521  89  11  665
1477471638.490:   3517  89  11  665
1477471638.491:   3524  89  11  665
1477471638.492:   3525  89  11  665
1477471638.495:   3494  89  11  665
1477471638.507:   3427  89  11  665
1477471638.508:   3340  89  11  665
1477471638.509:   3249  89  11  665
1477471638.510:   3140  89  11  665
1477471638.510:   2990  89  11  665
1477471638.511:   2793  89  11  665
1477471638.512:   2581  89  11  665
1477471638.513:   2395  89  11  665
1477471638.527:   2256  89  11  665
1477471638.528:   2141  89  11  665
1477471638.528:   2003  90  12  664
1477471638.528:   1813  90  12  664
1477471638.528:   1596  90  12  664
1477471638.528:   1404  90  12  664
1477471638.529:   1271  90  12  664
1477471638.529:   1177  90  12  664
1477471638.530:   1062  90  12  664
1477471638.530:    886  90  12  664
1477471638.531:    669  90  12  664
1477471638.532:    468  90  12  664
1477471638.533:    309  90  12  664
1477471638.538:    163  90  12  664
1477471638.538:    -19  90  12  664
1477471638.540:   -252  90  12  664
1477471638.542:   -493  90  12  664
1477471638.542:   -693  90  12  664
1477471638.546:   -843  90  12  664
1477471638.547:   -967  90  12  664
1477471638.550:  -1078  90  12  664
1477471638.551:  -1170  90  12  664
1477471638.552:  -1228  90  12  664
1477471638.554:  -1263  90  12  664
1477471638.556:  -1298  90  12  664
1477471638.560:  -1345  90  12  664
1477471638.561:  -1388  90  12  664
1477471638.562:  -1407  90  12  664
1477471638.565:  -1401  90  12  664
1477471638.566:  -1389  90  12  664
1477471638.571:  -1390  90  12  664
1477471638.571:  -1407  90  12  664
1477471638.572:  -1422  90  12  664
1477471638.573:  -1423  90  12  664
1477471638.576:  -1402  90  12  664
1477471638.579:  -1375  90  12  664
1477471638.581:  -1368  90  12  664
1477471638.587:  -1397  90  12  664
1477471638.605:  -1448  90  12  664
1477471638.605:  -1488  90  12  664
1477471638.606:  -1491  90  12  664
1477471638.608:  -1469  90  12  664
1477471638.608:  -1440  90  12  664
1477471638.608:  -1413  90  12  664
1477471638.609:  -1377  90  12  664
1477471638.609:  -1318  90  12  664
1477471638.609:  -1237  90  12  664
1477471638.610:  -1158  90  12  664
1477471638.610:  -1102  90  12  664
1477471638.610:  -1077  90  12  664
1477471638.611:  -1074  90  12  664
1477471638.614:  -1073  90  12  664
1477471638.626:  -1052  90  12  664
1477471638.626:  -1014  90  12  664
1477471638.626:   -978  90  12  664
1477471638.626:   -967  90  12  664
1477471638.627:   -971  90  12  664
1477471638.627:   -954  90  12  664
1477471638.627:   -894  90  12  664
1477471638.627:   -827  90  12  664
1477471638.627:   -817  90  12  664
1477471638.628:   -892  90  12  664
1477471638.631:  -1007  90  12  664
1477471638.633:  -1092  90  12  664
1477471638.634:  -1117  90  12  664
1477471638.641:  -1119  90  12  664
1477471638.657:  -1141  90  12  664
1477471638.657:  -1180  90  12  664
1477471638.657:  -1194  90  12  664
1477471638.657:  -1158  90  12  664
1477471638.657:  -1091  90  12  664
1477471638.657:  -1031  90  12  664
1477471638.658:   -977  90  12  664
1477471638.658:   -905  90  12  664
1477471638.659:   -811  90  12  664
1477471638.659:   -739  90  12  664
1477471638.661:   -733  90  12  664
1477471638.662:   -788  90  12  664
1477471638.663:   -850  90  12  664
1477471638.667:   -874  90  12  664
1477471638.668:   -873  90  12  664
1477471638.671:   -891  90  12  664
1477471638.673:   -944  90  12  664
1477471638.673:   -998  90  12  664
1477471638.685:  -1017  90  12  664
1477471638.686:  -1011  90  12  664
1477471638.686:  -1019  90  12  664
1477471638.686:  -1060  90  12  664
1477471638.687:  -1100  90  12  664
1477471638.687:  -1097  90  12  664
1477471638.687:  -1052  90  12  664
1477471638.688:  -1002  90  12  664
1477471638.689:   -969  90  12  664
1477471638.694:   -933  90  12  664
1477471638.694:   -863  90  12  664
1477471638.700:   -766  90  12  664
1477471638.713:   -687  90  12  664
1477471638.713:   -652  90  12  664
1477471638.714:   -649  90  12  664
1477471638.715:   -642  90  12  664
1477471638.715:   -620  90  12  664
1477471638.716:   -600  90  12  664
1477471638.716:   -596  90  12  664
1477471638.717:   -597  90  12  664
1477471638.717:   -580  90  12  664
1477471638.718:   -551  90  12  664
1477471638.718:   -537  90  12  664
1477471638.720:   -551  90  12  664
1477471638.721:   -575  90  12  664
1477471638.725:   -578  90  12  664
1477471638.733:   -551  90  12  664
1477471638.733:   -512  90  12  664
1477471638.733:   -480  90  12  664
1477471638.733:   -449  90  12  664
1477471638.733:   -406  90  12  664
1477471638.734:   -349  90  12  664
1477471638.744:   -303  90  12  664
1477471638.745:   -291  90  12  664
1477471638.747:   -307  90  12  664
1477471638.748:   -321  90  12  664
1477471638.748:   -311  90  12  664
1477471638.751:   -281  90  12  664
1477471638.751:   -249  90  12  664
1477471638.752:   -220  90  12  664
1477471638.753:   -175  90  12  664
1477471638.758:   -103  90  12  664
1477471638.758:    -16  90  12  664
1477471638.760:     57  90  12  664
1477471638.761:    110  90  12  664
1477471638.763:    167  90  12  664
1477471638.778:    247  90  12  664
1477471638.782:    329  90  12  664
1477471638.783:    358  90  12  664
1477471638.783:    306  90  12  664
1477471638.785:    210  90  12  664
1477471638.785:    136  90  12  664
1477471638.786:    110  90  12  664
1477471638.790:     91  90  12  664
1477471638.798:     24  90  12  664
1477471638.798:    -94  90  12  664
1477471638.798:   -209  90  12  664
1477471638.798:   -274  90  12  664
1477471638.799:   -292  90  12  664
1477471638.799:   -304  90  12  664
1477471638.799:   -341  90  12  664
1477471638.799:   -396  90  12  664
1477471638.799:   -454  90  12  664
1477471638.799:   -509  90  12  664
1477471638.801:   -569  90  12  664
1477471638.802:   -633  90  12  664
1477471638.804:   -694  90  12  664
1477471638.807:   -754  90  12  664
1477471638.808:   -812  90  12  664
1477471638.814:   -856  90  12  664
1477471638.815:   -865  90  12  664
1477471638.815:   -842  90  12  664
1477471638.829:   -823  90  12  664
1477471638.888:   -841  90  12  664
1477471638.888:   -883  90  12  664
1477471638.888:   -911  90  12  664
1477471638.889:   -905  90  12  664
1477471638.889:   -896  90  12  664
1477471638.889:   -917  90  12  664
1477471638.889:   -967  90  12  664
1477471638.890:  -1008  90  12  664
1477471638.890:  -1018  90  12  664
1477471638.890:  -1006  90  12  664
1477471638.890:   -990  90  12  664
1477471638.891:   -962  90  12  664
1477471638.891:   -911  90  12  664
1477471638.891:   -855  90  12  664
1477471638.891:   -834  90  12  664
1477471638.892:   -856  90  12  664
1477471638.892:   -881  90  12  664
1477471638.892:   -866  90  12  664
1477471638.892:   -815  90  12  664
1477471638.893:   -770  90  12  664
1477471638.893:   -767  90  12  664
1477471638.893:   -794  90  12  664
1477471638.893:   -817  90  12  664
1477471638.894:   -821  90  12  664
1477471638.894:   -823  90  12  664
1477471638.894:   -836  90  12  664
1477471638.894:   -853  90  12  664
1477471638.896:   -866  90  12  664
1477471638.898:   -884  90  12  664
1477471638.899:   -920  90  12  664
1477471638.899:   -962  90  12  664
1477471638.899:   -976  90  12  664
1477471638.900:   -939  90  12  664
1477471638.900:   -867  90  12  664
1477471638.900:   -799  90  12  664
1477471638.900:   -760  90  12  664
1477471638.901:   -748  90  12  664
1477471638.901:   -751  90  12  664
1477471638.901:   -765  90  12  664
1477471638.901:   -790  90  12  664
1477471638.903:   -817  90  12  664
1477471638.904:   -828  90  12  664
1477471638.904:   -822  90  12  664
1477471638.904:   -802  90  12  664
1477471638.906:   -745  90  12  664
1477471638.918:   -605  90  12  664
1477471638.918:   -356  90  12  664
1477471638.918:    -21  90  12  664
1477471638.919:    346  90  12  664
1477471638.919:    727  90  12  664
1477471638.920:   1150  90  12  664
1477471638.920:   1653  90  12  664
1477471638.920:   2235  90  12  664
1477471638.923:   2859  90  12  664
1477471638.927:   3483  90  12  664
1477471638.927:   4063  90  12  664
1477471638.928:   4537  90  12  664
1477471638.930:   4853  90  12  664
1477471638.931:   5026  90  12  664
1477471638.936:   5116  90  12  664
1477471638.936:   5152  90  12  664
1477471638.938:   5052  90  12  664
1477471638.940:   4696  90  12  664
1477471638.960:   4059  90  12  664
1477471638.960:   3248  90  12  664
1477471638.961:   2378  90  12  664
1477471638.961:   1443  90  12  664
1477471638.961:    347  90  12  664
1477471638.962:   -932  90  12  664
1477471638.963:  -2262  90  12  664
1477471638.963:  -3451  90  12  664
1477471638.963:  -4404  90  12  664
1477471638.964:  -5155  90  12  664
1477471638.964:  -5753  90  12  664
1477471638.966:  -6148  90  12  664
1477471638.968:  -6236  90  12  664
1477471638.968:  -5972  90  12  664
1477471638.981:  -5444  90  12  664
1477471638.982:  -4815  90  12  664
1477471638.982:  -4204  90  12  664
1477471638.983:  -3625  90  12  664
1477471638.983:  -3044  90  12  664
1477471638.983:  -2448  90  12  664
1477471638.984:  -1896  90  12  664
1477471638.984:  -1470  90  12  664
1477471638.987:  -1192  90  12  664
1477471638.987:  -1005  90  12  664
1477471638.989:   -828  90  12  664
1477471638.991:   -632  90  12  664
1477471638.995:   -453  90  12  664
1477471638.997:   -328  90  12  664
1477471638.998:   -246  90  12  664
1477471638.998:   -185  90  12  664
1477471639.000:   -145  90  12  664
1477471639.005:   -160  90  12  664
1477471639.006:   -240  90  12  664
1477471639.007:   -331  90  12  664
1477471639.009:   -373  90  12  664
1477471639.011:   -349  90  12  664
1477471639.014:   -299  90  12  664
1477471639.014:   -260  90  12  664
1477471639.030:   -230  90  12  664
1477471639.031:   -184  90  12  664
1477471639.032:   -114  90  12  664
1477471639.033:    -39  90  12  664
1477471639.033:     21  90  12  664
1477471639.034:     63  90  12  664
1477471639.059:    100  90  12  664
1477471639.059:    145  90  12  664
1477471639.059:    211  90  12  664
1477471639.059:    300  90  12  664
1477471639.059:    401  90  12  664
1477471639.059:    488  90  12  664
1477471639.060:    539  90  12  664
1477471639.060:    554  90  12  664
1477471639.060:    558  90  12  664
1477471639.060:    574  90  12  664
1477471639.060:    607  90  12  664
1477471639.061:    648  90  12  664
1477471639.061:    690  90  12  664
1477471639.061:    739  90  12  664
1477471639.061:    808  90  12  664
1477471639.062:    903  90  12  664
1477471639.062:   1001  90  12  664
1477471639.067:   1073  90  12  664
1477471639.067:   1101  90  12  664
1477471639.069:   1102  90  12  664
1477471639.073:   1115  90  12  664
1477471639.073:   1165  90  12  664
1477471639.086:   1230  90  12  664
1477471639.086:   1266  90  12  664
1477471639.086:   1262  90  12  664
1477471639.086:   1250  90  12  664
1477471639.086:   1263  90  12  664
1477471639.087:   1290  90  12  664
1477471639.087:   1301  90  12  664
1477471639.087:   1297  90  12  664
1477471639.087:   1319  90  12  664
1477471639.091:   1391  90  12  664
1477471639.092:   1485  90  12  664
1477471639.093:   1553  90  12  664
1477471639.095:   1593  90  12  664
1477471639.096:   1662  90  12  664
1477471639.098:   1789  90  12  664
1477471639.101:   1923  90  12  664
1477471639.128:   1979  90  12  664
1477471639.129:   1940  90  12  664
1477471639.129:   1892  90  12  664
1477471639.129:   1930  90  12  664
1477471639.129:   2054  90  12  664
1477471639.129:   2174  90  12  664
1477471639.129:   2224  90  12  664
1477471639.130:   2240  90  12  664
1477471639.130:   2316  90  12  664
1477471639.130:   2476  90  12  664
1477471639.130:   2656  90  12  664
1477471639.130:   2783  90  12  664
1477471639.131:   2868  90  12  664
1477471639.131:   2983  90  12  664
1477471639.137:   3158  90  12  664
1477471639.138:   3338  90  12  664
1477471639.140:   3443  90  12  664
1477471639.141:   3471  90  12  664
1477471639.142:   3486  90  12  664
1477471639.144:   3538  90  12  664
1477471639.145:   3592  90  12  664
1477471639.147:   3587  90  12  664
1477471639.159:   3518  90  12  664
1477471639.160:   3450  90  12  664
1477471639.160:   3446  90  12  664
1477471639.160:   3489  90  12  664
1477471639.160:   3502  90  12  664
1477471639.160:   3433  90  12  664
1477471639.160:   3315  90  12  664
1477471639.160:   3221  90  12  664
1477471639.162:   3184  90  12  664
1477471639.164:   3168  90  12  664
1477471639.164:   3115  90  12  664
1477471639.167:   3003  90  12  664
1477471639.173:   2859  90  12  664
1477471639.173:   2722  90  12  664
1477471639.174:   2610  90  12  664
1477471639.176:   2517  90  12  664
1477471639.177:   2427  90  12  664
1477471639.179:   2321  90  12  664
1477471639.181:   2178  90  12  664
1477471639.184:   2001  90  12  664
1477471639.201:   1819  90  12  664
1477471639.201:   1673  90  12  664
1477471639.202:   1566  90  12  664
1477471639.202:   1461  90  12  664
1477471639.203:   1324  90  12  664
1477471639.204:   1167  90  12  664
1477471639.205:   1024  90  12  664
1477471639.205:    908  90  12  664
1477471639.206:    792  90  12  664
1477471639.206:    649  90  12  664
1477471639.207:    488  90  12  664
1477471639.207:    342  90  12  664
1477471639.209:    213  90  12  664
1477471639.212:     64  90  12  664
1477471639.216:   -134  90  12  664
1477471639.219:   -355  90  12  664
1477471639.236:   -552  90  12  664
1477471639.237:   -715  90  12  664
1477471639.237:   -880  90  12  664
1477471639.237:  -1083  90  12  664
1477471639.238:  -1302  90  12  664
1477471639.238:  -1482  90  12  664
1477471639.238:  -1589  90  12  664
1477471639.238:  -1646  90  12  664
1477471639.239:  -1697  90  12  664
1477471639.239:  -1758  90  12  664
1477471639.240:  -1798  90  12  664
1477471639.240:  -1786  90  12  664
1477471639.240:  -1731  90  12  664
1477471639.244:  -1678  90  12  664
1477471639.245:  -1665  90  12  664
1477471639.250:  -1688  90  12  664
1477471639.251:  -1710  90  12  664
1477471639.253:  -1703  90  12  664
1477471639.268:  -1681  90  12  664
1477471639.268:  -1685  90  12  664
1477471639.269:  -1742  90  12  664
1477471639.269:  -1839  90  12  664
1477471639.269:  -1933  90  12  664
1477471639.269:  -1975  90  12  664
1477471639.269:  -1953  90  12  664
1477471639.269:  -1893  90  12  664
1477471639.270:  -1841  90  12  664
1477471639.270:  -1821  90  12  664
1477471639.271:  -1819  90  12  664
1477471639.275:  -1797  90  12  664
1477471639.276:  -1727  90  12  664
1477471639.277:  -1630  90  12  664
1477471639.278:  -1562  90  12  664
1477471639.281:  -1563  90  12  664
1477471639.284:  -1608  90  12  664
1477471639.285:  -1627  90  12  664
1477471639.289:  -1574  90  12  664
1477471639.289:  -1467  90  12  664
1477471639.291:  -1372  90  12  664
1477471639.292:  -1337  90  12  664
1477471639.296:  -1352  90  12  664
1477471639.297:  -1361  90  12  664
1477471639.298:  -1329  90  12  664
1477471639.306:  -1271  90  12  664
1477471639.322:  -1230  90  12  664
1477471639.323:  -1242  90  12  664
1477471639.324:  -1306  90  12  664
1477471639.324:  -1395  90  12  664
1477471639.326:  -1466  90  12  664
1477471639.328:  -1478  90  12  664
1477471639.331:  -1413  90  12  664
1477471639.335:  -1294  90  12  664
1477471639.346:  -1176  90  12  664
1477471639.346:  -1099  90  12  664
1477471639.347:  -1045  90  12  664
1477471639.347:   -957  90  12  664
1477471639.347:   -815  90  12  664
1477471639.347:   -666  90  12  664
1477471639.347:   -584  90  12  664
1477471639.347:   -586  90  12  664
1477471639.347:   -625  90  12  664
1477471639.348:   -647  90  12  664
1477471639.348:   -659  90  12  664
1477471639.348:   -703  90  12  664
1477471639.348:   -786  90  12  664
1477471639.351:   -857  90  12  664
1477471639.351:   -880  90  12  664
1477471639.351:   -872  90  12  664
1477471639.351:   -885  90  12  664
1477471639.352:   -938  90  12  664
1477471639.356:   -992  90  12  664
1477471639.357:  -1000  90  12  664
1477471639.358:   -965  90  12  664
1477471639.360:   -936  90  12  664
1477471639.362:   -956  90  12  664
1477471639.364:  -1012  90  12  664
1477471639.366:  -1044  90  12  664
1477471639.367:   -995  90  12  664
1477471639.371:   -878  90  12  664
1477471639.373:   -765  90  12  664
1477471639.383:   -726  90  12  664
1477471639.384:   -755  90  12  664
1477471639.384:   -773  90  12  664
1477471639.385:   -728  90  12  664
1477471639.385:   -663  90  12  664
1477471639.388:   -669  90  12  664
1477471639.388:   -763  90  12  664
1477471639.389:   -846  90  12  664
1477471639.391:   -816  90  12  664
1477471639.393:   -687  90  12  664
1477471639.402:   -577  90  12  664
1477471639.403:   -566  90  12  664
1477471639.403:   -605  90  12  664
1477471639.404:   -588  90  12  664
1477471639.405:   -488  90  12  664
1477471639.406:   -383  90  12  664
1477471639.407:   -351  90  12  664
1477471639.409:   -378  90  12  664
1477471639.411:   -383  90  12  664
1477471639.413:   -320  90  12  664
1477471639.423:   -217  90  12  664
1477471639.424:   -140  90  12  664
1477471639.424:   -127  90  12  664
1477471639.425:   -149  90  12  664
1477471639.425:   -155  90  12  664
1477471639.427:   -115  90  12  664
1477471639.428:    -44  90  12  664
1477471639.429:     -6  90  12  664
1477471639.429:    -52  90  12  664
1477471639.432:   -170  90  12  664
1477471639.442:   -296  90  12  664
1477471639.443:   -379  90  12  664
1477471639.443:   -437  90  12  664
1477471639.444:   -532  90  12  664
1477471639.445:   -688  90  12  664
1477471639.447:   -856  90  12  664
1477471639.448:   -973  90  12  664
1477471639.449:  -1037  90  12  664
1477471639.450:  -1098  90  12  664
1477471639.455:  -1185  90  12  664
1477471639.456:  -1260  90  12  664
1477471639.456:  -1267  90  12  664
1477471639.458:  -1212  90  12  664
1477471639.458:  -1164  90  12  664
1477471639.460:  -1175  90  12  664
1477471639.461:  -1209  90  12  664
1477471639.464:  -1193  90  12  664
1477471639.468:  -1110  90  12  664
1477471639.469:  -1025  90  12  664
1477471639.472:  -1011  90  12  664
1477471639.483:  -1063  90  12  664
1477471639.567:  -1111  90  12  664
1477471639.576:  -1112  90  12  664
1477471639.576:  -1090  90  12  664
1477471639.576:  -1104  90  12  664
1477471639.576:  -1164  90  12  664
1477471639.576:  -1222  90  12  664
1477471639.576:  -1238  90  12  664
1477471639.577:  -1226  90  12  664
1477471639.577:  -1229  90  12  664
1477471639.577:  -1266  90  12  664
1477471639.577:  -1311  90  12  664
1477471639.577:  -1325  90  12  664
1477471639.577:  -1299  90  12  664
1477471639.578:  -1260  90  12  664
1477471639.578:  -1244  90  12  664
1477471639.578:  -1263  90  12  664
1477471639.578:  -1290  90  12  664
1477471639.578:  -1278  90  12  664
1477471639.578:  -1202  90  12  664
1477471639.578:  -1081  90  12  664
1477471639.579:   -960  90  12  664
1477471639.579:   -868  90  12  664
1477471639.579:   -790  90  12  664
1477471639.579:   -701  90  12  664
1477471639.579:   -603  90  12  664
1477471639.580:   -538  90  12  664
1477471639.580:   -535  90  12  664
1477471639.580:   -579  90  12  664
1477471639.580:   -627  90  12  664
1477471639.580:   -666  90  12  664
1477471639.580:   -714  90  12  664
1477471639.580:   -790  90  12  664
1477471639.581:   -879  90  12  664
1477471639.581:   -957  90  12  664
1477471639.581:  -1016  90  12  664
1477471639.581:  -1064  90  12  664
1477471639.581:  -1091  90  12  664
1477471639.582:  -1078  90  12  664
1477471639.582:  -1028  90  12  664
1477471639.582:   -975  90  12  664
1477471639.582:   -933  90  12  664
1477471639.582:   -855  90  12  664
1477471639.582:   -686  90  12  664
1477471639.582:   -432  90  12  664
1477471639.583:   -176  90  12  664
1477471639.583:     24  90  12  664
1477471639.583:    219  90  12  664
1477471639.583:    518  90  12  664
1477471639.583:    963  90  12  664
1477471639.584:   1492  90  12  664
1477471639.584:   2039  90  12  664
1477471639.584:   2608  90  12  664
1477471639.584:   3230  90  12  664
1477471639.584:   3853  90  12  664
1477471639.584:   4352  90  12  664
1477471639.584:   4654  90  12  664
1477471639.585:   4814  90  12  664
1477471639.585:   4910  90  12  664
1477471639.592:   4911  90  12  664
1477471639.592:   4667  90  12  664
1477471639.592:   4075  90  12  664
1477471639.593:   3188  90  12  664
1477471639.595:   2153  90  12  664
1477471639.615:   1045  90  12  664
1477471639.615:   -176  90  12  664
1477471639.616:  -1556  90  12  664
1477471639.616:  -3014  90  12  664
1477471639.616:  -4365  90  12  664
1477471639.616:  -5441  90  12  664
1477471639.616:  -6179  90  12  664
1477471639.617:  -6619  90  12  664
1477471639.617:  -6821  90  12  664
1477471639.619:  -6805  90  12  664
1477471639.621:  -6542  90  12  664
1477471639.622:  -6010  90  12  664
1477471639.623:  -5264  90  12  664
1477471639.624:  -4450  90  12  664
1477471639.628:  -3727  90  12  664
1477471639.628:  -3153  90  12  664
1477471639.636:  -2660  90  12  664
1477471639.640:  -2157  90  12  664
1477471639.640:  -1654  90  12  664
1477471639.640:  -1260  90  12  664
1477471639.641:  -1051  90  12  664
1477471639.641:   -970  90  12  664
1477471639.641:   -880  90  12  664
1477471639.645:   -702  90  12  664
1477471639.654:   -474  90  12  664
1477471639.655:   -291  90  12  664
1477471639.655:   -195  90  12  664
1477471639.655:   -163  90  12  664
1477471639.655:   -153  90  12  664
1477471639.656:   -136  90  12  664
1477471639.658:    -99  90  12  664
1477471639.658:    -38  90  12  664
1477471639.660:     33  90  12  664
1477471639.664:     97  90  12  664
1477471639.664:    162  90  12  664
1477471639.666:    264  90  12  664
1477471639.667:    424  90  12  664
1477471639.673:    596  90  12  664
1477471639.685:    704  90  12  664
1477471639.686:    730  90  12  664
1477471639.692:    731  90  12  664
1477471639.692:    765  90  12  664
1477471639.694:    817  90  12  664
1477471639.694:    820  90  12  664
1477471639.695:    760  90  12  664
1477471639.697:    703  90  12  664
1477471639.698:    710  90  12  664
1477471639.699:    762  90  12  664
1477471639.700:    797  90  12  664
1477471639.700:    802  90  12  664
1477471639.701:    821  90  12  664
1477471639.701:    889  90  12  664
1477471639.701:    982  90  12  664
1477471639.702:   1055  90  12  664
1477471639.704:   1115  90  12  664
1477471639.706:   1207  90  12  664
1477471639.723:   1334  90  12  664
1477471639.723:   1438  90  12  664
1477471639.724:   1466  90  12  664
1477471639.724:   1446  90  12  664
1477471639.724:   1448  90  12  664
1477471639.724:   1500  90  12  664
1477471639.724:   1552  90  12  664
1477471639.725:   1551  90  12  664
1477471639.725:   1504  90  12  664
1477471639.729:   1469  90  12  664
1477471639.729:   1485  90  12  664
1477471639.730:   1541  90  12  664
1477471639.730:   1606  90  12  664
1477471639.732:   1670  90  12  664
1477471639.734:   1743  90  12  664
1477471639.737:   1827  90  12  664
1477471639.744:   1911  90  12  664
1477471639.744:   1981  90  12  664
1477471639.744:   2043  90  12  664
1477471639.745:   2104  90  12  664
1477471639.749:   2159  90  12  664
1477471639.750:   2202  90  12  664
1477471639.752:   2242  90  12  664
1477471639.755:   2295  90  12  664
1477471639.756:   2362  90  12  664
1477471639.757:   2416  90  12  664
1477471639.759:   2442  90  12  664
1477471639.766:   2469  90  12  664
1477471639.767:   2549  90  12  664
1477471639.768:   2694  90  12  664
1477471639.769:   2853  90  12  664
1477471639.770:   2958  90  12  664
1477471639.775:   2999  90  12  664
1477471639.775:   3027  90  12  664
1477471639.776:   3091  90  12  664
1477471639.777:   3182  90  12  664
1477471639.779:   3257  90  12  664
1477471639.783:   3300  90  12  664
1477471639.797:   3326  90  12  664
1477471639.797:   3348  90  12  664
1477471639.797:   3345  90  12  664
1477471639.798:   3313  90  12  664
1477471639.798:   3291  90  12  664
1477471639.798:   3322  90  12  664
1477471639.799:   3384  90  12  664
1477471639.800:   3400  90  12  664
1477471639.800:   3323  90  12  664
1477471639.801:   3207  90  12  664
1477471639.802:   3150  90  12  664
1477471639.804:   3189  90  12  664
1477471639.806:   3257  90  12  664
1477471639.810:   3274  90  12  664
1477471639.814:   3236  90  12  664
1477471639.814:   3193  90  12  664
1477471639.814:   3175  90  12  664
1477471639.815:   3162  90  12  664
1477471639.818:   3132  90  12  664
1477471639.820:   3097  90  12  664
1477471639.824:   3075  90  12  664
1477471639.825:   3041  90  12  664
1477471639.845:   2960  90  12  664
1477471639.846:   2838  90  12  664
1477471639.846:   2741  90  12  664
1477471639.847:   2716  90  12  664
1477471639.847:   2732  90  12  664
1477471639.847:   2711  90  12  664
1477471639.848:   2613  90  12  664
1477471639.848:   2476  90  12  664
1477471639.848:   2343  90  12  664
1477471639.848:   2207  90  12  664
1477471639.848:   2033  90  12  664
1477471639.849:   1821  90  12  664
1477471639.851:   1612  90  12  664
1477471639.851:   1431  90  12  664
1477471639.853:   1257  90  12  664
1477471639.854:   1058  90  12  664
1477471639.868:    848  90  12  667
1477471639.868:    679  90  12  667
1477471639.868:    576  90  12  667
1477471639.868:    517  90  12  667
1477471639.869:    461  90  12  667
1477471639.869:    400  90  12  667
1477471639.869:    348  90  12  667
1477471639.869:    295  90  12  667
1477471639.872:    208  90  12  667
1477471639.874:     73  90  12  667
1477471639.875:    -75  90  12  667
1477471639.878:   -192  90  12  667
1477471639.879:   -285  90  12  667
1477471639.883:   -414  90  12  667
1477471639.894:   -612  90  12  667
1477471639.894:   -829  90  12  667
1477471639.894:   -974  90  12  667
1477471639.894:  -1008  90  12  667
1477471639.894:   -989  90  12  667
1477471639.894:  -1011  90  12  667
1477471639.897:  -1105  90  12  667
1477471639.898:  -1212  90  12  667
1477471639.899:  -1270  90  12  667
1477471639.902:  -1282  90  12  667
1477471639.903:  -1311  90  12  667
1477471639.906:  -1396  90  12  667
1477471639.919:  -1508  90  12  667
1477471639.920:  -1585  90  12  667
1477471639.920:  -1596  90  12  667
1477471639.920:  -1562  90  12  667
1477471639.920:  -1515  90  12  667
1477471639.920:  -1458  90  12  667
1477471639.920:  -1369  90  12  667
1477471639.921:  -1241  90  12  667
1477471639.926:  -1095  90  12  667
1477471639.926:   -969  90  12  667
1477471639.928:   -891  90  12  667
1477471639.930:   -869  90  12  667
1477471639.932:   -897  90  12  667
1477471639.935:   -952  90  12  667
1477471639.936:   -996  90  12  667
1477471639.947:  -1002  90  12  667
1477471639.948:   -976  90  12  667
1477471639.948:   -955  90  12  667
1477471639.948:   -967  90  12  667
1477471639.949:  -1000  90  12  667
1477471639.949:  -1011  90  12  667
1477471639.949:   -974  90  12  667
1477471639.953:   -912  90  12  667
1477471639.953:   -874  90  12  667
1477471639.972:   -887  90  12  667
1477471639.973:   -931  90  12  667
1477471639.973:   -970  90  12  667
1477471639.973:   -991  90  12  667
1477471639.973:  -1004  90  12  667
1477471639.973:  -1015  90  12  667
1477471639.974:  -1007  90  12  667
1477471639.974:   -965  90  12  667
1477471639.974:   -896  90  12  667
1477471639.974:   -819  90  12  667
1477471639.975:   -742  90  12  667
1477471639.976:   -656  90  12  667
1477471639.979:   -558  90  12  667
1477471639.980:   -475  90  12  667
1477471639.985:   -440  90  12  667
1477471639.986:   -452  90  12  667
1477471639.989:   -483  90  12  667
1477471639.991:   -503  90  12  667
1477471639.992:   -507  90  12  667
1477471639.996:   -503  90  12  667
1477471640.013:   -502  90  12  667
1477471640.013:   -507  90  12  667
1477471640.014:   -528  90  12  667
1477471640.014:   -563  90  12  667
1477471640.015:   -593  90  12  667
1477471640.015:   -595  90  12  667
1477471640.015:   -570  90  12  667
1477471640.016:   -547  90  12  667
1477471640.016:   -545  90  12  667
1477471640.017:   -544  90  12  667
1477471640.017:   -509  90  12  667
1477471640.017:   -436  90  12  667
1477471640.017:   -366  90  12  667
1477471640.022:   -333  90  12  667
1477471640.022:   -324  90  12  667
1477471640.025:   -298  90  12  667
1477471640.035:   -243  90  12  667
1477471640.036:   -187  90  12  667
1477471640.036:   -159  90  12  667
1477471640.036:   -142  90  12  667
1477471640.037:    -89  90  12  667
1477471640.037:     18  90  12  667
1477471640.039:    139  90  12  667
1477471640.039:    223  90  12  667
1477471640.041:    261  90  12  667
1477471640.044:    289  90  12  667
1477471640.045:    337  90  12  667
1477471640.049:    387  90  12  667
1477471640.049:    412  90  12  667
1477471640.053:    414  90  12  667
1477471640.053:    428  90  12  667
1477471640.055:    476  90  12  667
1477471640.064:    537  90  12  667
1477471640.065:    574  90  12  667
1477471640.066:    584  90  12  667
1477471640.066:    606  90  12  667
1477471640.067:    679  90  12  667
1477471640.068:    789  90  12  667
1477471640.070:    876  90  12  667
1477471640.072:    884  90  12  667
1477471640.082:    817  90  12  667
1477471640.082:    731  90  12  667
1477471640.082:    677  90  12  667
1477471640.083:    657  90  12  667
1477471640.085:    634  90  12  667
1477471640.086:    572  90  12  667
1477471640.086:    472  90  12  667
1477471640.092:    372  90  12  667
1477471640.093:    297  90  12  667
1477471640.093:    241  90  12  667
1477471640.094:    185  90  12  667
1477471640.095:    122  90  12  667
1477471640.097:     60  90  12  667
1477471640.098:      0  90  12  667
1477471640.104:    -74  90  12  667
1477471640.104:   -172  90  12  667
1477471640.104:   -277  90  12  667
1477471640.107:   -349  90  12  667
1477471640.108:   -374  90  12  667
1477471640.110:   -367  90  12  667
1477471640.111:   -355  90  12  667
1477471640.117:   -348  90  12  667
1477471640.130:   -340  90  12  667
1477471640.130:   -334  90  12  667
1477471640.131:   -340  90  12  667
1477471640.131:   -360  90  12  667
1477471640.131:   -386  90  12  667
1477471640.131:   -412  90  12  667
1477471640.131:   -445  90  12  667
1477471640.131:   -495  90  12  667
1477471640.132:   -550  90  12  667
1477471640.134:   -591  90  12  667
1477471640.137:   -622  90  12  667
1477471640.137:   -662  90  12  667
1477471640.139:   -716  90  12  667
1477471640.145:   -758  90  12  667
1477471640.150:   -762  90  12  667
1477471640.150:   -732  90  12  667
1477471640.151:   -700  90  12  667
1477471640.151:   -676  90  12  667
1477471640.152:   -630  90  12  667
1477471640.153:   -532  90  12  667
1477471640.159:   -403  90  12  667
1477471640.159:   -307  90  12  667
1477471640.161:   -289  90  12  667
1477471640.161:   -327  90  12  667
1477471640.164:   -370  90  12  667
1477471640.169:   -396  90  12  667
1477471640.240:   -427  90  12  667
1477471640.240:   -482  90  12  667
1477471640.241:   -538  90  12  667
1477471640.241:   -559  90  12  667
1477471640.241:   -540  90  12  667
1477471640.242:   -506  90  12  667
1477471640.242:   -476  90  12  667
1477471640.242:   -434  90  12  667
1477471640.243:   -359  90  12  667
1477471640.243:   -265  90  12  667
1477471640.243:   -187  90  12  667
1477471640.244:   -146  90  12  667
1477471640.244:   -132  90  12  667
1477471640.244:   -139  90  12  667
1477471640.245:   -182  90  12  667
1477471640.245:   -272  90  12  667
1477471640.245:   -385  90  12  667
1477471640.246:   -473  90  12  667
1477471640.246:   -521  90  12  667
1477471640.246:   -554  90  12  667
1477471640.247:   -586  90  12  667
1477471640.247:   -575  90  12  667
1477471640.260:   -456  90  12  667
1477471640.260:   -220  90  12  667
1477471640.261:     64  90  12  667
1477471640.261:    330  90  12  667
1477471640.261:    601  90  12  667
1477471640.261:    963  90  12  667
1477471640.261:   1464  90  12  667
1477471640.262:   2069  90  12  667
1477471640.262:   2713  90  12  667
1477471640.262:   3366  90  12  667
1477471640.263:   4019  90  12  667
1477471640.263:   4624  90  12  667
1477471640.263:   5104  90  12  667
1477471640.263:   5428  90  12  667
1477471640.263:   5639  90  12  667
1477471640.263:   5778  90  12  667
1477471640.263:   5793  90  12  667
1477471640.263:   5580  90  12  667
1477471640.264:   5105  90  12  667
1477471640.264:   4442  90  12  667
1477471640.264:   3671  90  12  667
1477471640.264:   2774  90  12  667
1477471640.264:   1673  90  12  667
1477471640.264:    373  90  12  667
1477471640.264:   -975  90  12  667
1477471640.265:  -2187  90  12  667
1477471640.265:  -3180  90  12  667
1477471640.265:  -3983  90  12  667
1477471640.269:  -4627  90  12  667
1477471640.270:  -5061  90  12  667
1477471640.270:  -5201  90  12  667
1477471640.271:  -5035  90  12  667
1477471640.272:  -4651  90  12  667
1477471640.275:  -4176  90  12  667
1477471640.278:  -3693  90  12  667
1477471640.282:  -3223  90  12  667
1477471640.282:  -2768  90  12  667
1477471640.284:  -2343  90  12  667
1477471640.285:  -1973  90  12  667
1477471640.287:  -1670  90  12  667
1477471640.289:  -1418  90  12  667
1477471640.291:  -1197  90  12  667
1477471640.302:   -992  90  12  667
1477471640.303:   -801  90  12  667
1477471640.304:   -633  90  12  667
1477471640.304:   -486  90  12  667
1477471640.304:   -351  90  12  667
1477471640.304:   -236  90  12  667
1477471640.305:   -169  90  12  667
1477471640.310:   -176  90  12  667
1477471640.310:   -244  90  12  667
1477471640.314:   -306  90  12  667
1477471640.315:   -295  90  12  667
1477471640.316:   -192  90  12  667
1477471640.317:    -43  90  12  667
1477471640.318:     93  90  12  667
1477471640.324:    196  90  12  667
1477471640.324:    287  90  12  667
1477471640.339:    381  90  12  667
1477471640.339:    452  90  12  667
1477471640.339:    457  90  12  667
1477471640.339:    391  90  12  667
1477471640.339:    312  90  12  667
1477471640.340:    283  90  12  667
1477471640.340:    318  90  12  667
1477471640.340:    384  90  12  667
1477471640.372:    452  90  12  667
1477471640.372:    528  90  12  667
1477471640.373:    619  90  12  667
1477471640.373:    698  90  12  667
1477471640.374:    726  90  12  667
1477471640.375:    712  90  12  667
1477471640.376:    707  90  12  667
1477471640.376:    757  90  12  667
1477471640.379:    835  90  12  667
1477471640.382:    879  90  12  667
1477471640.383:    875  90  12  667
1477471640.383:    876  90  12  667
1477471640.384:    939  90  12  667
1477471640.384:   1047  90  12  667
1477471640.384:   1125  90  12  667
1477471640.385:   1140  90  12  667
1477471640.385:   1143  90  12  667
1477471640.385:   1209  90  12  667
1477471640.386:   1336  90  12  667
1477471640.386:   1432  90  12  667
1477471640.387:   1429  90  12  667
1477471640.387:   1371  90  12  667
1477471640.388:   1367  90  12  667
1477471640.388:   1457  90  12  667
1477471640.389:   1571  90  12  667
1477471640.391:   1619  90  12  667
1477471640.393:   1609  90  12  667
1477471640.393:   1636  90  12  667
1477471640.399:   1749  90  12  667
1477471640.399:   1891  90  12  667
1477471640.419:   1958  90  12  667
1477471640.419:   1935  90  12  667
1477471640.424:   1907  90  12  667
1477471640.425:   1950  90  12  667
1477471640.436:   2062  90  12  667
1477471640.437:   2181  90  12  667
1477471640.437:   2274  90  12  667
1477471640.438:   2356  90  12  667
1477471640.439:   2453  90  12  667
1477471640.439:   2562  90  12  667
1477471640.440:   2662  90  12  667
1477471640.440:   2745  90  12  667
1477471640.441:   2810  90  12  667
1477471640.441:   2865  90  12  667
1477471640.442:   2903  90  12  667
1477471640.443:   2926  90  12  667
1477471640.443:   2943  90  12  667
1477471640.444:   2956  90  12  667
1477471640.444:   2973  90  12  667
1477471640.445:   3008  90  12  667
1477471640.449:   3074  90  12  667
1477471640.452:   3161  90  12  667
1477471640.453:   3231  90  12  667
1477471640.454:   3253  90  12  667
1477471640.456:   3244  90  12  667
1477471640.457:   3258  90  12  667
1477471640.457:   3341  90  12  667
1477471640.458:   3481  90  12  667
1477471640.458:   3620  90  12  667
1477471640.458:   3704  90  12  667
1477471640.459:   3729  90  12  667
1477471640.460:   3739  90  12  667
1477471640.461:   3775  90  12  667
1477471640.466:   3835  90  12  667
1477471640.478:   3878  90  12  667
1477471640.479:   3867  90  12  667
1477471640.480:   3802  90  12  667
1477471640.480:   3712  90  12  667
1477471640.482:   3619  90  12  667
1477471640.482:   3514  90  12  667
1477471640.483:   3381  90  12  667
1477471640.484:   3234  90  12  667
1477471640.484:   3108  90  12  667
1477471640.485:   3020  90  12  667
1477471640.485:   2947  90  12  667
1477471640.488:   2853  90  12  667
1477471640.499:   2725  90  12  667
1477471640.500:   2589  90  12  667
1477471640.500:   2475  90  12  667
1477471640.500:   2367  90  12  667
1477471640.501:   2221  90  12  667
1477471640.501:   1999  90  12  667
1477471640.501:   1719  90  12  667
1477471640.502:   1439  90  12  667
1477471640.507:   1205  90  12  667
1477471640.507:   1010  90  12  667
1477471640.508:    814  90  12  665
1477471640.510:    599  90  12  665
1477471640.513:    394  90  12  665
1477471640.515:    251  90  12  665
1477471640.516:    192  90  12  665
1477471640.521:    187  90  12  665
1477471640.521:    184  90  12  665
1477471640.522:    154  90  12  665
1477471640.523:     92  90  12  665
1477471640.526:     11  90  12  665
1477471640.528:    -73  90  12  665
1477471640.529:   -152  90  12  665
1477471640.534:   -229  90  12  665
1477471640.534:   -328  90  12  665
1477471640.549:   -481  90  12  665
1477471640.550:   -689  90  12  665
1477471640.551:   -911  90  12  665
1477471640.552:  -1087  90  12  665
1477471640.553:  -1198  90  12  665
1477471640.554:  -1271  90  12  665
1477471640.569:  -1342  90  12  665
1477471640.569:  -1411  90  12  665
1477471640.570:  -1448  90  12  665
