timestamp: ADC HeartRate4sAverage HeartRate30sAverage HRV8sAverage
1477481993.524:     24  74   9  808
1477481993.524:    640  74   9  808
1477481993.526:    281  74   9  808
1477481993.527:    726  74   9  808
1477481993.530:    100  74   9  808
1477481993.530:    665  74   9  808
1477481993.531:    279  74   9  808
1477481993.531:    787  74   9  808
1477481993.531:    300  74   9  808
1477481993.531:    696  74   9  808
1477481993.531:    122  74   9  808
1477481993.532:    751  74   9  808
1477481993.532:    362  74   9  808
1477481993.532:    829  74   9  808
1477481993.533:    343  74   9  808
1477481993.547:    802  74   9  808
1477481993.547:    267  74   9  808
1477481993.548:    834  74   9  808
1477481993.548:    314  74   9  808
1477481993.549:    679  74   9  808
1477481993.550:    162  74   9  808
1477481993.552:    610  74   9  808
1477481993.553:     48  74   9  808
1477481993.553:    615  74   9  808
1477481993.554:    186  74   9  808
1477481993.554:    708  74   9  808
1477481993.555:    328  74   9  808
1477481993.555:    821  74   9  808
1477481993.556:    234  74   9  808
1477481993.567:    785  74   9  808
1477481993.568:    381  74   9  808
1477481993.568:    927  74   9  808
1477481993.569:    520  74   9  808
1477481993.569:    943  74   9  808
1477481993.569:    283  74   9  808
1477481993.569:    766  74   9  808
1477481993.570:    275  74   9  808
1477481993.570:    714  74   9  808
1477481993.575:    237  74   9  808
1477481993.587:    694  74   9  808
1477481993.588:    152  74   9  808
1477481993.588:    732  74   9  808
1477481993.589:    258  74   9  808
1477481993.589:    682  74   9  808
1477481993.589:    229  74   9  808
1477481993.589:    723  74   9  808
1477481993.590:    159  74   9  808
1477481993.590:    650  74   9  808
1477481993.592:    119  74   9  808
1477481993.593:    597  74   9  808
1477481993.595:    250  74   9  808
1477481993.598:    789  74   9  808
1477481993.603:    187  74   9  808
1477481993.603:    668  74   9  808
1477481993.604:    198  74   9  808
1477481993.605:    687  74   9  808
1477481993.606:    147  74   9  808
1477481993.612:    283  74   9  808
1477481993.613:   -795  74   9  808
1477481993.624:   -773  74   9  808
1477481993.625:  -1725  74   9  808
1477481993.626:  -1790  74   9  808
1477481993.626:  -2861  74   9  808
1477481993.627:  -3057  74   9  808
1477481993.628:  -4196  74   9  808
1477481993.628:  -4039  74   9  808
1477481993.630:  -4700  74   9  808
1477481993.631:  -4219  74   9  808
1477481993.632:  -4376  74   9  808
1477481993.650:  -3338  74   9  808
1477481993.651:  -3140  74   9  808
1477481993.651:  -1759  74   9  808
1477481993.652:  -1423  74   9  808
1477481993.653:   -205  74   9  808
1477481993.654:     78  74   9  808
1477481993.654:   1205  74   9  808
1477481993.655:   1148  74   9  808
1477481993.655:   1995  74   9  808
1477481993.656:   1585  74   9  808
1477481993.657:   1908  74   9  808
1477481993.657:   1269  74   9  808
1477481993.659:   1618  74   9  808
1477481993.660:   1033  74   9  808
1477481993.662:   1591  74   9  808
1477481993.663:   1047  74   9  808
1477481993.673:   1330  74   9  808
1477481993.674:    728  74   9  808
1477481993.674:   1192  74   9  808
1477481993.675:    755  74   9  808
1477481993.676:   1439  74   9  808
1477481993.676:    996  74   9  808
1477481993.677:   1376  74   9  808
1477481993.677:    838  74   9  808
1477481993.679:   1274  74   9  808
1477481993.681:    734  74   9  808
1477481993.690:   1334  74   9  808
1477481993.691:    899  74   9  808
1477481993.692:   1350  74   9  808
1477481993.693:    849  74   9  808
1477481993.693:   1237  74   9  808
1477481993.694:    602  74   9  808
1477481993.695:   1118  74   9  808
1477481993.698:    628  74   9  808
1477481993.699:   1040  74   9  808
1477481993.703:    535  74   9  808
1477481993.704:    983  74   9  808
1477481993.707:    447  74   9  808
1477481993.709:   1046  74   9  808
1477481993.710:    586  74   9  808
1477481993.710:    993  74   9  808
1477481993.718:    488  74   9  808
1477481993.732:    953  74   9  808
1477481993.732:    438  74   9  808
1477481993.733:   1039  74   9  808
1477481993.734:    556  74   9  808
1477481993.734:    918  74   9  808
1477481993.735:    351  74   9  808
1477481993.736:    760  74   9  808
1477481993.737:    223  74   9  808
1477481993.738:    845  74   9  808
1477481993.739:    403  74   9  808
1477481993.740:    810  74   9  808
1477481993.740:    301  74   9  808
1477481993.741:    779  74   9  808
1477481993.744:    298  74   9  808
1477481993.754:    937  74   9  808
1477481993.755:    485  74   9  808
1477481993.756:    890  74   9  808
1477481993.756:    388  74   9  808
1477481993.757:    827  74   9  808
1477481993.758:    223  74   9  808
1477481993.758:    702  74   9  808
1477481993.759:    160  74   9  808
1477481993.760:    598  74   9  808
1477481993.762:    198  75  10  804
1477481993.763:    722  75  10  804
1477481993.764:    157  75  10  804
1477481993.766:    673  75  10  804
1477481993.771:    196  75  10  804
1477481993.773:    686  75  10  804
1477481993.774:    273  75  10  804
1477481993.775:    739  75  10  804
1477481993.777:    136  75  10  804
1477481993.794:    652  75  10  804
1477481993.795:    172  75  10  804
1477481993.795:    611  75  10  804
1477481993.795:    122  75  10  804
1477481993.795:    551  75  10  804
1477481993.795:    -16  75  10  804
1477481993.796:    560  75  10  804
1477481993.796:     93  75  10  804
1477481993.796:    497  75  10  804
1477481993.800:    -14  75  10  804
1477481993.800:    449  75  10  804
1477481993.800:    -65  75  10  804
1477481993.802:    526  75  10  804
1477481993.803:     29  75  10  804
1477481993.805:    415  75  10  804
1477481993.808:    -60  75  10  804
1477481993.832:    439  75  10  804
1477481993.832:   -119  75  10  804
1477481993.833:    348  75  10  804
1477481993.834:   -254  75  10  804
1477481993.836:    139  75  10  804
1477481993.837:   -244  75  10  804
1477481993.837:    333  75  10  804
1477481993.838:   -221  75  10  804
1477481993.839:    213  75  10  804
1477481993.839:   -382  75  10  804
1477481993.840:     58  75  10  804
1477481993.841:   -297  75  10  804
1477481993.841:    253  75  10  804
1477481993.842:   -335  75  10  804
1477481993.843:    125  75  10  804
1477481993.844:   -396  75  10  804
1477481993.855:     96  75  10  804
1477481993.856:   -284  75  10  804
1477481993.856:    190  75  10  804
1477481993.857:   -457  75  10  804
1477481993.858:     -8  75  10  804
1477481993.859:   -541  75  10  804
1477481993.859:   -118  75  10  804
1477481993.860:   -587  75  10  804
1477481993.861:   -129  75  10  804
1477481993.861:   -678  75  10  804
1477481993.862:    -81  75  10  804
1477481993.863:   -511  75  10  804
1477481993.874:    -61  75  10  804
1477481993.875:   -526  75  10  804
1477481993.875:    -34  75  10  804
1477481993.875:   -545  75  10  804
1477481993.875:     34  75  10  804
1477481993.875:   -467  75  10  804
1477481993.877:    -78  75  10  804
1477481993.878:   -556  75  10  804
1477481993.880:    -55  75  10  804
1477481993.881:   -573  75  10  804
1477481993.886:     -6  75  10  804
1477481993.886:   -497  75  10  804
1477481993.888:    -72  75  10  804
1477481993.889:   -526  75  10  804
1477481993.897:    -16  75  10  804
1477481993.897:   -501  75  10  804
1477481993.898:    138  75  10  804
1477481993.901:   -296  75  10  804
1477481993.901:    128  75  10  804
1477481993.902:   -353  75  10  804
1477481993.903:    157  75  10  804
1477481993.906:   -305  75  10  804
1477481993.909:    322  75  10  804
1477481993.910:   -171  75  10  804
1477481993.919:    211  75  10  804
1477481993.920:   -235  75  10  804
1477481993.920:    364  75  10  804
1477481993.921:    -37  75  10  804
1477481993.922:    599  75  10  804
1477481993.923:    104  75  10  804
1477481993.923:    497  75  10  804
1477481993.927:     38  75  10  804
1477481993.937:    567  75  10  804
1477481993.938:     72  75  10  804
1477481993.939:    649  75  10  804
1477481993.939:    153  75  10  804
1477481993.940:    583  75  10  804
1477481993.941:    167  75  10  804
1477481993.943:    720  75  10  804
1477481993.945:    224  75  10  804
1477481993.945:    771  75  10  804
1477481993.949:    240  75  10  804
1477481993.961:    638  75  10  804
1477481993.961:    191  75  10  804
1477481993.961:    694  75  10  804
1477481993.962:    133  75  10  804
1477481993.962:    651  75  10  804
1477481993.962:    146  75  10  804
1477481993.962:    595  75  10  804
1477481993.962:    178  75  10  804
1477481993.962:    715  75  10  804
1477481993.968:    252  75  10  804
1477481993.968:    916  75  10  804
1477481993.969:    504  75  10  804
1477481993.981:    910  75  10  804
1477481993.981:    365  75  10  804
1477481993.981:    814  75  10  804
1477481993.982:    346  75  10  804
1477481993.982:   1012  75  10  804
1477481993.982:    539  75  10  804
1477481993.982:    860  75  10  804
1477481993.984:    279  75  10  804
1477481993.986:    747  75  10  804
1477481993.993:    287  75  10  804
1477481993.994:    910  75  10  804
1477481993.996:    389  75  10  804
1477481993.999:    726  75  10  804
1477481993.999:    235  75  10  804
1477481993.999:    793  75  10  804
1477481994.000:    354  75  10  804
1477481994.005:    938  75  10  804
1477481994.005:    381  75  10  804
1477481994.009:    731  75  10  804
1477481994.009:    285  75  10  804
1477481994.010:    865  75  10  804
1477481994.012:    389  75  10  804
1477481994.013:    904  75  10  804
1477481994.018:    310  75  10  804
1477481994.018:    683  75  10  804
1477481994.022:    285  75  10  804
1477481994.038:    869  75  10  804
1477481994.038:    343  75  10  804
1477481994.039:    809  75  10  804
1477481994.039:    225  75  10  804
1477481994.039:    643  75  10  804
1477481994.039:    241  75  10  804
1477481994.039:    752  75  10  804
1477481994.039:    163  75  10  804
1477481994.040:    661  75  10  804
1477481994.040:    199  75  10  804
1477481994.041:    729  75  10  804
1477481994.043:    350  75  10  804
1477481994.046:    819  75  10  804
1477481994.050:    206  75  10  804
1477481994.067:    723  75  10  804
1477481994.131:    228  75  10  804
1477481994.132:    618  75  10  804
1477481994.132:     85  75  10  804
1477481994.146:    540  75  10  804
1477481994.146:     62  75  10  804
1477481994.146:    702  75  10  804
1477481994.147:    175  75  10  804
1477481994.147:    424  75  10  804
1477481994.147:   -186  75  10  804
1477481994.148:    333  75  10  804
1477481994.148:    -45  75  10  804
1477481994.148:    611  75  10  804
1477481994.148:     57  75  10  804
1477481994.149:    354  75  10  804
1477481994.149:   -146  75  10  804
1477481994.149:    413  75  10  804
1477481994.150:    -47  75  10  804
1477481994.150:    523  75  10  804
1477481994.153:     20  75  10  804
1477481994.153:    443  75  10  804
1477481994.153:    -43  75  10  804
1477481994.165:    353  75  10  804
1477481994.166:   -280  75  10  804
1477481994.166:    298  75  10  804
1477481994.167:    -44  75  10  804
1477481994.168:    538  75  10  804
1477481994.169:    119  75  10  804
1477481994.169:    534  75  10  804
1477481994.169:    -79  75  10  804
1477481994.170:    481  75  10  804
1477481994.171:     41  75  10  804
1477481994.171:    489  75  10  804
1477481994.171:     10  75  10  804
1477481994.172:    471  75  10  804
1477481994.172:    -89  75  10  804
1477481994.173:    454  75  10  804
1477481994.173:    -33  75  10  804
1477481994.173:    432  75  10  804
1477481994.174:     50  75  10  804
1477481994.174:    606  75  10  804
1477481994.174:     69  75  10  804
1477481994.175:    575  75  10  804
1477481994.176:     41  75  10  804
1477481994.176:    478  75  10  804
1477481994.176:     56  75  10  804
1477481994.189:    537  75  10  804
1477481994.189:    -76  75  10  804
1477481994.189:    413  75  10  804
1477481994.190:    -64  75  10  804
1477481994.190:    457  75  10  804
1477481994.190:     89  75  10  804
1477481994.191:    593  75  10  804
1477481994.191:     17  75  10  804
1477481994.191:    566  75  10  804
1477481994.191:    131  75  10  804
1477481994.191:    622  75  10  804
1477481994.192:    178  75  10  804
1477481994.192:    628  75  10  804
1477481994.192:     46  75  10  804
1477481994.192:    587  75  10  804
1477481994.193:     73  75  10  804
1477481994.193:    438  75  10  804
1477481994.193:    -78  75  10  804
1477481994.193:    426  75  10  804
1477481994.193:    -23  75  10  804
1477481994.194:    616  75  10  804
1477481994.194:    130  75  10  804
1477481994.194:    501  75  10  804
1477481994.194:      9  75  10  804
1477481994.194:    525  75  10  804
1477481994.195:     28  75  10  804
1477481994.195:    573  75  10  804
1477481994.195:     15  75  10  804
1477481994.196:    364  75  10  804
1477481994.198:   -137  75  10  804
1477481994.211:    338  75  10  804
1477481994.211:   -196  75  10  804
1477481994.212:    385  75  10  804
1477481994.213:    -79  75  10  804
1477481994.214:    348  75  10  804
1477481994.215:   -137  75  10  804
1477481994.215:    324  75  10  804
1477481994.217:   -224  75  10  804
1477481994.218:    321  75  10  804
1477481994.220:   -227  75  10  804
1477481994.220:    101  75  10  804
1477481994.220:   -421  75  10  804
1477481994.245:     83  75  10  804
1477481994.246:   -421  75  10  804
1477481994.247:    106  75  10  804
1477481994.249:   -476  75  10  804
1477481994.249:   -109  75  10  804
1477481994.250:   -522  75  10  804
1477481994.251:     63  75  10  804
1477481994.253:   -436  75  10  804
1477481994.254:     75  75  10  804
1477481994.254:   -474  75  10  804
1477481994.255:    -51  75  10  804
1477481994.256:   -490  75  10  804
1477481994.256:    -37  75  10  804
1477481994.257:   -666  75  10  804
1477481994.275:   -185  75  10  804
1477481994.276:   -685  75  10  804
1477481994.277:   -226  75  10  804
1477481994.278:   -654  75  10  804
1477481994.279:   -151  75  10  804
1477481994.279:   -662  75  10  804
1477481994.280:    -44  75  10  804
1477481994.284:   -461  75  10  804
1477481994.284:     13  75  10  804
1477481994.284:   -420  75  10  804
1477481994.284:     96  75  10  804
1477481994.284:   -409  75  10  804
1477481994.285:    174  75  10  804
1477481994.285:   -297  75  10  804
1477481994.285:    170  75  10  804
1477481994.285:   -194  75  10  804
1477481994.286:    429  75  10  804
1477481994.286:      6  75  10  804
1477481994.288:    616  75  10  804
1477481994.288:    137  75  10  804
1477481994.289:    586  75  10  804
1477481994.291:    181  75  10  804
1477481994.307:    715  75  10  804
1477481994.307:    164  75  10  804
1477481994.307:    661  75  10  804
1477481994.308:    121  75  10  804
1477481994.308:    555  75  10  804
1477481994.308:    147  75  10  804
1477481994.309:    669  75  10  804
1477481994.309:    120  75  10  804
1477481994.309:    662  75  10  804
1477481994.311:    193  75  10  804
1477481994.312:    683  75  10  804
1477481994.315:    291  75  10  804
1477481994.316:    805  75  10  804
1477481994.320:    234  75  10  804
1477481994.343:    746  75  10  804
1477481994.344:    258  75  10  804
1477481994.344:    729  75  10  804
1477481994.344:    297  75  10  804
1477481994.344:    745  75  10  804
1477481994.344:    112  75  10  804
1477481994.345:    606  75  10  804
1477481994.345:    144  75  10  804
1477481994.345:    655  75  10  804
1477481994.345:    253  75  10  804
1477481994.346:    732  75  10  804
1477481994.346:    158  75  10  804
1477481994.346:    709  75  10  804
1477481994.348:    231  75  10  804
1477481994.349:    647  75  10  804
1477481994.350:    145  75  10  804
1477481994.352:    585  75  10  804
1477481994.353:     21  75  10  804
1477481994.356:    585  75  10  804
1477481994.356:    125  75  10  804
1477481994.361:    600  75  10  804
1477481994.361:    193  75  10  804
1477481994.363:    697  75  10  804
1477481994.364:    120  75  10  804
1477481994.367:    638  75  10  804
1477481994.369:    162  75  10  804
1477481994.371:    626  75  10  804
1477481994.375:    143  75  10  804
1477481994.389:    520  75  10  804
1477481994.390:   -127  75  10  804
1477481994.390:    441  75  10  804
1477481994.390:     88  75  10  804
1477481994.391:    651  75  10  804
1477481994.392:    212  75  10  804
1477481994.392:    595  75  10  804
1477481994.392:   -102  75  10  804
1477481994.393:    283  75  10  804
1477481994.393:   -432  75  10  804
1477481994.428:   -335  75  10  804
1477481994.428:  -1253  75  10  804
1477481994.430:  -1356  75  10  804
1477481994.430:  -2596  75  10  804
1477481994.430:  -2784  75  10  804
1477481994.430:  -3966  75  10  804
1477481994.431:  -4091  75  10  804
1477481994.432:  -4927  75  10  804
1477481994.433:  -4636  75  10  804
1477481994.435:  -5141  75  10  804
1477481994.436:  -4232  75  10  804
1477481994.436:  -4037  75  10  804
1477481994.436:  -2718  75  10  804
1477481994.436:  -2262  75  10  804
1477481994.437:   -946  75  10  804
1477481994.437:   -727  75  10  804
1477481994.437:    574  75  10  804
1477481994.437:    780  75  10  804
1477481994.438:   1719  75  10  804
1477481994.438:   1485  75  10  804
1477481994.438:   1929  75  10  804
1477481994.440:   1219  75  10  804
1477481994.440:   1627  75  10  804
1477481994.441:   1057  75  10  804
1477481994.443:   1428  75  10  804
1477481994.444:    897  75  10  804
1477481994.459:   1313  75  10  804
1477481994.460:    746  75  10  804
1477481994.461:   1314  75  10  804
1477481994.461:    837  75  10  804
1477481994.462:   1264  75  10  804
1477481994.463:    848  75  10  804
1477481994.463:   1433  75  10  804
1477481994.463:    974  75  10  804
1477481994.464:   1485  75  10  804
1477481994.464:    824  75  10  804
1477481994.465:   1086  75  10  804
1477481994.471:    600  75  10  804
1477481994.494:   1166  75  10  804
1477481994.494:    658  75  10  804
1477481994.495:   1123  75  10  804
1477481994.495:    504  75  10  804
1477481994.496:    898  75  10  804
1477481994.497:    519  75  10  804
1477481994.497:   1093  75  10  804
1477481994.498:    551  75  10  804
1477481994.500:   1043  75  10  804
1477481994.502:    514  75  10  804
1477481994.503:    958  75  10  804
1477481994.504:    534  75  10  804
1477481994.515:   1013  75  10  804
1477481994.515:    409  75  10  804
1477481994.516:    872  75  10  804
1477481994.517:    294  75  10  804
1477481994.518:    676  75  10  804
1477481994.518:    231  75  10  804
1477481994.519:    755  75  10  804
1477481994.520:    226  75  10  804
1477481994.521:    759  75  10  804
1477481994.521:    235  75  10  804
1477481994.521:    653  75  10  804
1477481994.522:    209  75  10  804
1477481994.524:    705  75  10  804
1477481994.526:    167  75  10  804
1477481994.540:    744  75  10  804
1477481994.541:    287  75  10  804
1477481994.542:    711  75  10  804
1477481994.543:    195  75  10  804
1477481994.543:    612  75  10  804
1477481994.544:     40  75  10  804
1477481994.546:    607  75  10  804
1477481994.546:    136  75  10  804
1477481994.547:    564  75  10  804
1477481994.550:    114  75  10  804
1477481994.561:    624  75  10  804
1477481994.562:     79  75  10  804
1477481994.563:    577  75  10  804
1477481994.564:     19  75  10  804
1477481994.568:    436  75  10  800
1477481994.569:     17  75  10  800
1477481994.579:    502  75  10  800
1477481994.581:   -128  75  10  800
1477481994.581:    336  75  10  800
1477481994.583:   -136  75  10  800
1477481994.583:    413  75  10  800
1477481994.584:     58  75  10  800
1477481994.585:    540  75  10  800
1477481994.586:    -71  75  10  800
1477481994.586:    465  75  10  800
1477481994.587:     17  75  10  800
1477481994.598:    454  75  10  800
1477481994.598:    -76  75  10  800
1477481994.599:    328  75  10  800
1477481994.599:   -208  75  10  800
1477481994.600:    442  75  10  800
1477481994.600:     21  75  10  800
1477481994.600:    410  75  10  800
1477481994.601:   -143  75  10  800
1477481994.602:    310  75  10  800
1477481994.602:   -158  75  10  800
1477481994.602:    506  75  10  800
1477481994.603:     49  75  10  800
1477481994.603:    406  75  10  800
1477481994.603:   -160  75  10  800
1477481994.604:    260  75  10  800
1477481994.604:   -289  75  10  800
1477481994.604:    282  75  10  800
1477481994.604:   -216  75  10  800
1477481994.607:    177  75  10  800
1477481994.608:   -308  75  10  800
1477481994.616:    164  75  10  800
1477481994.617:   -399  75  10  800
1477481994.618:    129  75  10  800
1477481994.618:   -371  75  10  800
1477481994.618:     83  75  10  800
1477481994.622:   -326  75  10  800
1477481994.623:    168  75  10  800
1477481994.628:   -452  75  10  800
1477481994.635:     -8  75  10  800
1477481994.636:   -552  75  10  800
1477481994.637:   -107  75  10  800
1477481994.638:   -550  75  10  800
1477481994.638:   -130  75  10  800
1477481994.639:   -794  75  10  800
1477481994.640:   -309  75  10  800
1477481994.640:   -757  75  10  800
1477481994.644:   -244  75  10  800
1477481994.645:   -685  75  10  800
1477481994.653:   -285  75  10  800
1477481994.653:   -931  75  10  800
1477481994.654:   -394  75  10  800
1477481994.654:   -800  75  10  800
1477481994.654:   -262  75  10  800
1477481994.656:   -650  75  10  800
1477481994.659:   -143  75  10  800
1477481994.661:   -681  75  10  800
1477481994.661:   -110  75  10  800
1477481994.663:   -573  75  10  800
1477481994.668:   -111  75  10  800
1477481994.668:   -516  75  10  800
1477481994.672:     14  75  10  800
1477481994.673:   -547  75  10  800
1477481994.677:    -86  75  10  800
1477481994.677:   -673  75  10  800
1477481994.681:   -247  75  10  800
1477481994.681:   -592  75  10  800
1477481994.684:     15  75  10  800
1477481994.685:   -516  75  10  800
1477481994.686:    -41  75  10  800
1477481994.691:   -571  75  10  800
1477481994.707:    -64  75  10  800
1477481994.707:   -376  75  10  800
1477481994.708:    197  75  10  800
1477481994.708:   -346  75  10  800
1477481994.708:    207  75  10  800
1477481994.708:   -204  75  10  800
1477481994.709:    356  75  10  800
1477481994.709:     -5  75  10  800
1477481994.710:    487  75  10  800
1477481994.710:   -103  75  10  800
1477481994.710:    421  75  10  800
1477481994.715:    -54  75  10  800
1477481994.715:    416  75  10  800
1477481994.718:      5  75  10  800
1477481994.728:    517  75  10  800
1477481994.729:    -26  75  10  800
1477481994.730:    532  75  10  800
1477481994.730:     94  75  10  800
1477481994.731:    624  75  10  800
1477481994.731:    278  75  10  800
1477481994.732:    821  75  10  800
1477481994.734:    260  75  10  800
1477481994.747:    777  75  10  800
1477481994.748:    280  75  10  800
1477481994.748:    725  75  10  800
1477481994.749:    273  75  10  800
1477481994.750:    741  75  10  800
1477481994.750:    184  75  10  800
1477481994.751:    740  75  10  800
1477481994.754:    255  75  10  800
1477481994.765:    682  75  10  800
1477481994.766:    216  75  10  800
1477481994.767:    696  75  10  800
1477481994.767:    144  75  10  800
1477481994.768:    683  75  10  800
1477481994.769:    183  75  10  800
1477481994.769:    626  75  10  800
1477481994.769:    205  75  10  800
1477481994.769:    713  75  10  800
1477481994.769:    161  75  10  800
1477481994.770:    714  75  10  800
1477481994.773:    264  75  10  800
1477481994.783:    751  75  10  800
1477481994.784:    322  75  10  800
1477481994.784:    788  75  10  800
1477481994.804:    214  75  10  800
1477481994.806:    787  75  10  800
1477481994.807:    363  75  10  800
1477481994.810:    843  75  10  800
1477481994.811:    366  75  10  800
1477481994.819:    773  75  10  800
1477481994.820:    142  75  10  800
1477481994.820:    645  75  10  800
1477481994.821:    147  75  10  800
1477481994.822:    601  75  10  800
1477481994.822:    191  75  10  800
1477481994.823:    727  75  10  800
1477481994.823:    201  75  10  800
1477481994.824:    724  75  10  800
1477481994.825:    190  75  10  800
1477481994.836:    629  75  10  800
1477481994.837:    250  75  10  800
1477481994.838:    794  75  10  800
1477481994.839:    200  75  10  800
1477481994.839:    617  75  10  800
1477481994.840:     24  75  10  800
1477481994.840:    472  75  10  800
1477481994.841:    113  75  10  800
1477481994.842:    656  75  10  800
1477481994.842:     75  75  10  800
1477481994.844:    563  75  10  800
1477481994.844:     66  75  10  800
1477481994.845:    532  75  10  800
1477481994.846:     84  75  10  800
1477481994.847:    527  75  10  800
1477481994.848:    -64  75  10  800
1477481994.848:    491  75  10  800
1477481994.848:     23  75  10  800
1477481994.860:    420  75  10  800
1477481994.861:   -131  75  10  800
1477481994.862:    267  75  10  800
1477481994.862:   -283  75  10  800
1477481994.863:    335  75  10  800
1477481994.864:    -97  75  10  800
1477481994.864:    337  75  10  800
1477481994.865:   -133  75  10  800
1477481994.865:    384  75  10  800
1477481994.934:    -75  75  10  800
1477481994.945:    550  75  10  800
1477481994.945:     45  75  10  800
1477481994.945:    389  75  10  800
1477481994.945:   -126  75  10  800
1477481994.945:    377  75  10  800
1477481994.945:   -124  75  10  800
1477481994.945:    425  75  10  800
1477481994.946:   -111  75  10  800
1477481994.946:    300  75  10  800
1477481994.946:   -102  75  10  800
1477481994.946:    456  75  10  800
1477481994.946:    -72  75  10  800
1477481994.946:    445  75  10  800
1477481994.946:    -73  75  10  800
1477481994.947:    352  75  10  800
1477481994.947:   -131  75  10  800
1477481994.947:    280  75  10  800
1477481994.947:   -318  75  10  800
1477481994.947:    272  75  10  800
1477481994.947:   -128  75  10  800
1477481994.947:    336  75  10  800
1477481994.947:   -168  75  10  800
1477481994.948:    279  75  10  800
1477481994.948:   -204  75  10  800
1477481994.951:    471  75  10  800
1477481994.952:     44  75  10  800
1477481994.952:    433  75  10  800
1477481994.952:    -85  75  10  800
1477481994.952:    393  75  10  800
1477481994.952:   -123  75  10  800
1477481994.952:    438  75  10  800
1477481994.952:    -71  75  10  800
1477481994.953:    348  75  10  800
1477481994.953:    -97  75  10  800
1477481994.953:    388  75  10  800
1477481994.953:   -174  75  10  800
1477481994.953:    391  75  10  800
1477481994.953:    -34  75  10  800
1477481994.953:    461  75  10  800
1477481994.954:      6  75  10  800
1477481994.954:    452  75  10  800
1477481994.954:    -79  75  10  800
1477481994.954:    568  75  10  800
1477481994.954:    156  75  10  800
1477481994.954:    542  75  10  800
1477481994.954:    -47  75  10  800
1477481994.955:    364  75  10  800
1477481994.955:   -113  75  10  800
1477481994.958:    577  75  10  800
1477481994.959:    150  75  10  800
1477481994.961:    519  75  10  800
1477481994.962:    -40  75  10  800
1477481994.970:    394  75  10  800
1477481994.970:   -141  75  10  800
1477481994.970:    439  75  10  800
1477481994.973:    -53  75  10  800
1477481994.973:    343  75  10  800
1477481994.974:   -164  75  10  800
1477481994.976:    266  75  10  800
1477481994.978:   -314  75  10  800
1477481994.979:    268  75  10  800
1477481994.981:   -121  75  10  800
1477481994.992:    418  75  10  800
1477481994.992:     -1  75  10  800
1477481994.992:    430  75  10  800
1477481994.992:   -201  75  10  800
1477481994.992:    312  75  10  800
1477481994.994:   -163  75  10  800
1477481994.997:    282  75  10  800
1477481995.001:   -216  75  10  800
1477481995.012:    173  75  10  800
1477481995.013:   -459  75  10  800
1477481995.013:     62  75  10  800
1477481995.014:   -412  75  10  800
1477481995.014:     38  75  10  800
1477481995.014:   -428  75  10  800
1477481995.015:     28  75  10  800
1477481995.015:   -532  75  10  800
1477481995.016:     41  75  10  800
1477481995.017:   -422  75  10  800
1477481995.018:      0  75  10  800
1477481995.021:   -491  75  10  800
1477481995.032:    -36  75  10  800
1477481995.033:   -591  75  10  800
1477481995.033:    -30  75  10  800
1477481995.035:   -522  75  10  800
1477481995.035:   -120  75  10  800
1477481995.036:   -607  75  10  800
1477481995.036:   -116  75  10  800
1477481995.038:   -613  75  10  800
1477481995.042:      3  75  10  800
1477481995.043:   -453  75  10  800
1477481995.050:    -44  75  10  800
1477481995.051:   -550  75  10  800
1477481995.055:    -79  75  10  800
1477481995.056:   -572  75  10  800
1477481995.067:     69  75  10  800
1477481995.067:   -357  75  10  800
1477481995.067:     92  75  10  800
1477481995.067:   -334  75  10  800
1477481995.068:    251  75  10  800
1477481995.068:   -125  75  10  800
1477481995.069:    597  75  10  800
1477481995.074:    209  75  10  800
1477481995.074:    667  75  10  800
1477481995.074:    205  75  10  800
1477481995.076:    677  75  10  800
1477481995.076:    116  75  10  800
1477481995.076:    660  75  10  800
1477481995.077:    192  75  10  800
1477481995.078:    666  75  10  800
1477481995.079:    247  75  10  800
1477481995.089:    741  75  10  800
1477481995.089:    191  75  10  800
1477481995.089:    759  75  10  800
1477481995.090:    308  75  10  800
1477481995.090:    750  75  10  800
1477481995.091:    259  75  10  800
1477481995.094:    691  75  10  800
1477481995.095:    119  75  10  800
1477481995.097:    680  75  10  800
1477481995.106:    199  75  10  800
1477481995.111:    620  75  10  800
1477481995.111:    163  75  10  800
1477481995.112:    683  75  10  800
1477481995.112:    192  75  10  800
1477481995.112:    778  75  10  800
1477481995.112:    279  75  10  800
1477481995.115:    677  75  10  800
1477481995.117:    206  75  10  800
1477481995.119:    701  75  10  800
1477481995.120:    174  75  10  800
1477481995.121:    750  75  10  800
1477481995.123:    288  75  10  800
1477481995.125:    730  75  10  800
1477481995.130:    249  75  10  800
1477481995.130:    678  75  10  800
1477481995.133:     96  75  10  800
1477481995.133:    689  75  10  800
1477481995.135:    309  75  10  800
1477481995.138:    835  75  10  800
1477481995.139:    395  75  10  800
1477481995.152:    820  75  10  800
1477481995.152:    194  75  10  800
1477481995.152:    685  75  10  800
1477481995.153:    146  75  10  800
1477481995.153:    516  75  10  800
1477481995.153:      7  75  10  800
1477481995.156:    475  75  10  800
1477481995.156:    -63  75  10  800
1477481995.157:    481  75  10  800
1477481995.158:    -31  75  10  800
1477481995.161:    433  75  10  800
1477481995.162:    125  75  10  800
1477481995.169:    810  75  10  800
1477481995.170:    365  75  10  800
1477481995.170:    857  75  10  800
1477481995.170:    225  75  10  800
1477481995.174:    563  75  10  800
1477481995.174:     62  75  10  800
1477481995.176:    394  75  10  800
1477481995.179:   -534  75  10  800
1477481995.180:   -514  75  10  800
1477481995.183:  -1531  75  10  800
1477481995.183:  -1612  75  10  800
1477481995.188:  -2703  75  10  800
1477481995.189:  -3032  75  10  800
1477481995.190:  -4395  75  10  800
1477481995.192:  -4380  75  10  800
1477481995.196:  -5028  75  10  800
1477481995.203:  -4521  75  10  800
1477481995.203:  -4798  75  10  800
1477481995.203:  -3952  75  10  800
1477481995.204:  -3798  75  10  800
1477481995.207:  -2243  75  10  800
1477481995.207:  -1689  75  10  800
1477481995.211:   -400  75  10  800
1477481995.211:   -164  75  10  800
1477481995.213:    987  75  10  800
1477481995.214:   1083  75  10  800
1477481995.224:   2080  75  10  800
1477481995.224:   1694  75  10  800
1477481995.224:   1972  75  10  800
1477481995.224:   1337  75  10  800
1477481995.225:   1737  75  10  800
1477481995.226:   1138  75  10  800
1477481995.227:   1580  75  10  800
1477481995.230:    948  75  10  800
1477481995.232:   1284  75  10  800
1477481995.234:    812  75  10  800
1477481995.244:   1306  75  10  800
1477481995.245:    742  75  10  800
1477481995.246:   1277  75  10  800
1477481995.248:    798  75  10  800
1477481995.249:   1240  75  10  800
1477481995.249:    755  75  10  800
1477481995.250:   1177  75  10  800
1477481995.252:    586  75  10  800
1477481995.263:   1128  75  10  800
1477481995.264:    620  75  10  800
1477481995.265:    994  75  10  800
1477481995.265:    495  75  10  800
1477481995.266:   1010  75  10  800
1477481995.267:    543  75  10  800
1477481995.268:   1124  75  10  800
1477481995.269:    555  75  10  800
1477481995.281:    869  75  10  800
1477481995.281:    383  75  10  800
1477481995.281:    940  75  10  800
1477481995.281:    473  75  10  800
1477481995.281:   1027  75  10  800
1477481995.282:    480  75  10  800
1477481995.282:    871  75  10  800
1477481995.282:    429  75  10  800
1477481995.285:    931  75  10  800
1477481995.286:    350  75  10  800
1477481995.291:    841  75  10  800
1477481995.291:    343  75  10  800
1477481995.301:    832  75  10  800
1477481995.301:    440  75  10  800
1477481995.301:    909  75  10  800
1477481995.301:    268  75  10  800
1477481995.301:    728  75  10  800
1477481995.303:    229  75  10  800
1477481995.303:    710  75  10  800
1477481995.307:    282  75  10  800
1477481995.307:    710  75  10  800
1477481995.309:     62  75  10  800
1477481995.311:    549  75  10  800
1477481995.313:     65  75  10  800
1477481995.320:    534  75  10  800
1477481995.321:     98  75  10  800
1477481995.325:    571  75  10  800
1477481995.327:      7  75  10  800
1477481995.329:    554  75  10  800
1477481995.330:     66  75  10  800
1477481995.330:    503  75  10  800
1477481995.331:     83  75  10  800
1477481995.332:    618  75  10  800
1477481995.333:     78  76  10  798
1477481995.334:    569  76  10  798
1477481995.334:     16  76  10  798
1477481995.339:    471  76  10  798
1477481995.341:    135  76  10  798
1477481995.367:    723  76  10  798
1477481995.369:    144  76  10  798
1477481995.370:    544  76  10  798
1477481995.371:    -78  76  10  798
1477481995.371:    344  76  10  798
1477481995.372:    -35  76  10  798
1477481995.373:    474  76  10  798
1477481995.374:   -167  76  10  798
1477481995.375:    249  76  10  798
1477481995.376:   -289  76  10  798
1477481995.376:    222  76  10  798
1477481995.377:   -114  76  10  798
1477481995.389:    409  76  10  798
1477481995.389:   -197  76  10  798
1477481995.390:    280  76  10  798
1477481995.390:   -222  76  10  798
1477481995.390:    242  76  10  798
1477481995.390:   -193  76  10  798
1477481995.390:    266  76  10  798
1477481995.390:   -326  76  10  798
1477481995.390:    192  76  10  798
1477481995.391:   -315  76  10  798
1477481995.391:    108  76  10  798
1477481995.391:   -336  76  10  798
1477481995.391:    172  76  10  798
1477481995.391:   -397  76  10  798
1477481995.393:     68  76  10  798
1477481995.394:   -507  76  10  798
1477481995.397:    -69  76  10  798
1477481995.398:   -431  76  10  798
1477481995.433:    108  76  10  798
1477481995.433:   -527  76  10  798
1477481995.434:   -137  76  10  798
1477481995.436:   -702  76  10  798
1477481995.436:   -197  76  10  798
1477481995.437:   -549  76  10  798
1477481995.437:    -74  76  10  798
1477481995.437:   -737  76  10  798
1477481995.438:   -259  76  10  798
1477481995.440:   -693  76  10  798
1477481995.441:   -144  76  10  798
1477481995.441:   -536  76  10  798
1477481995.441:    -79  76  10  798
1477481995.441:   -681  76  10  798
1477481995.441:   -156  76  10  798
1477481995.442:   -673  76  10  798
1477481995.442:   -316  76  10  798
1477481995.442:   -868  76  10  798
1477481995.442:   -418  76  10  798
1477481995.443:   -900  76  10  798
1477481995.443:   -242  76  10  798
1477481995.445:   -679  76  10  798
1477481995.445:   -281  76  10  798
1477481995.447:   -779  76  10  798
1477481995.464:   -248  76  10  798
1477481995.465:   -657  76  10  798
1477481995.465:     22  76  10  798
1477481995.466:   -445  76  10  798
1477481995.466:    -80  76  10  798
1477481995.466:   -565  76  10  798
1477481995.467:      5  76  10  798
1477481995.468:   -408  76  10  798
1477481995.468:    195  76  10  798
1477481995.469:   -374  76  10  798
1477481995.469:    -49  76  10  798
1477481995.471:   -505  76  10  798
1477481995.471:     84  76  10  798
1477481995.474:   -380  76  10  798
1477481995.483:    150  76  10  798
1477481995.484:   -418  76  10  798
1477481995.484:      5  76  10  798
1477481995.484:   -333  76  10  798
1477481995.486:    308  76  10  798
1477481995.486:   -167  76  10  798
1477481995.488:    362  76  10  798
1477481995.489:   -162  76  10  798
1477481995.491:    289  76  10  798
1477481995.492:    -96  76  10  798
1477481995.513:    451  76  10  798
1477481995.513:    -57  76  10  798
1477481995.514:    536  76  10  798
1477481995.514:    104  76  10  798
1477481995.514:    576  76  10  798
1477481995.514:    123  76  10  798
1477481995.515:    598  76  10  798
1477481995.515:     81  76  10  798
1477481995.515:    697  76  10  798
1477481995.515:    250  76  10  798
1477481995.515:    659  76  10  798
1477481995.516:    159  76  10  798
1477481995.518:    657  76  10  798
1477481995.519:    199  76  10  798
1477481995.520:    847  76  10  798
1477481995.523:    381  76  10  798
1477481995.526:    757  76  10  798
1477481995.529:    259  76  10  798
1477481995.537:    776  76  10  798
1477481995.538:    315  76  10  798
1477481995.538:    939  76  10  798
1477481995.538:    458  76  10  798
1477481995.539:    846  76  10  798
1477481995.539:    353  76  10  798
1477481995.544:    832  76  10  798
1477481995.544:    289  76  10  798
1477481995.545:    816  76  10  798
1477481995.547:    277  76  10  798
1477481995.551:    679  76  10  798
1477481995.552:    253  76  10  798
1477481995.553:    808  76  10  798
1477481995.557:    314  76  10  798
1477481995.573:    864  76  10  798
1477481995.573:    345  76  10  798
1477481995.574:    771  76  10  798
1477481995.574:    354  76  10  798
1477481995.574:    853  76  10  798
1477481995.574:    229  76  10  798
1477481995.574:    629  76  10  798
1477481995.575:      7  76  10  798
1477481995.575:    414  76  10  798
1477481995.576:     42  76  10  798
1477481995.576:    632  76  10  798
1477481995.578:    139  76  10  798
1477481995.579:    694  76  10  798
1477481995.585:    204  76  10  798
1477481995.595:    665  76  10  798
1477481995.596:    265  76  10  798
1477481995.596:    796  76  10  798
1477481995.596:    247  76  10  798
1477481995.596:    740  76  10  798
1477481995.596:    163  76  10  798
1477481995.597:    522  76  10  798
1477481995.598:     56  76  10  798
1477481995.601:    593  76  10  798
1477481995.606:    116  76  10  798
1477481995.607:    700  76  10  798
1477481995.607:    196  76  10  798
1477481995.608:    614  76  10  798
1477481995.610:    177  76  10  798
1477481995.612:    686  76  10  798
1477481995.613:    112  76  10  798
1477481995.617:    574  76  10  798
1477481995.617:     -8  76  10  798
1477481995.619:    395  76  10  798
1477481995.620:    -16  76  10  798
1477481995.623:    519  76  10  798
1477481995.625:    -35  76  10  798
1477481995.637:    472  76  10  798
1477481995.698:    -30  76  10  798
1477481995.700:    456  76  10  798
1477481995.701:     76  76  10  798
1477481995.701:    578  76  10  798
1477481995.702:    -34  76  10  798
1477481995.702:    434  76  10  798
1477481995.702:    -96  76  10  798
1477481995.702:    340  76  10  798
1477481995.702:   -111  76  10  798
1477481995.702:    354  76  10  798
1477481995.702:   -222  76  10  798
1477481995.703:    328  76  10  798
1477481995.703:   -135  76  10  798
1477481995.703:    324  76  10  798
1477481995.703:   -125  76  10  798
1477481995.703:    370  76  10  798
1477481995.704:   -131  76  10  798
1477481995.704:    489  76  10  798
1477481995.704:     27  76  10  798
1477481995.704:    413  76  10  798
1477481995.704:   -123  76  10  798
1477481995.704:    323  76  10  798
1477481995.705:   -190  76  10  798
1477481995.705:    423  76  10  798
1477481995.705:    -59  76  10  798
1477481995.705:    311  76  10  798
1477481995.705:   -217  76  10  798
1477481995.706:    248  76  10  798
1477481995.706:   -272  76  10  798
1477481995.706:    309  76  10  798
1477481995.706:   -182  76  10  798
1477481995.720:    226  76  10  798
1477481995.720:   -233  76  10  798
1477481995.720:    292  76  10  798
1477481995.721:   -187  76  10  798
1477481995.721:    428  76  10  798
1477481995.721:    -20  76  10  798
1477481995.721:    435  76  10  798
1477481995.721:      3  76  10  798
1477481995.722:    520  76  10  798
1477481995.722:     -3  76  10  798
1477481995.722:    529  76  10  798
1477481995.722:    -28  76  10  798
1477481995.722:    341  76  10  798
1477481995.722:   -115  76  10  798
1477481995.722:    427  76  10  798
1477481995.722:    -68  76  10  798
1477481995.723:    477  76  10  798
1477481995.727:    -52  76  10  798
1477481995.727:    367  76  10  798
1477481995.729:    -45  76  10  798
1477481995.730:    486  76  10  798
1477481995.731:    -64  76  10  798
1477481995.735:    454  76  10  798
1477481995.736:    -37  76  10  798
1477481995.749:    441  76  10  798
1477481995.750:     42  76  10  798
1477481995.750:    552  76  10  798
1477481995.751:      5  76  10  798
1477481995.751:    559  76  10  798
1477481995.752:     71  76  10  798
1477481995.752:    476  76  10  798
1477481995.755:    -28  76  10  798
1477481995.755:    424  76  10  798
1477481995.756:   -117  76  10  798
1477481995.757:    457  76  10  798
1477481995.758:    -21  76  10  798
1477481995.761:    411  76  10  798
1477481995.764:    -29  76  10  798
1477481995.767:    485  76  10  798
1477481995.767:    -51  76  10  798
1477481995.769:    475  76  10  798
1477481995.770:    -45  76  10  798
1477481995.772:    380  76  10  798
1477481995.776:    -53  76  10  798
1477481995.777:    445  76  10  798
1477481995.781:   -121  76  10  798
1477481995.796:    401  76  10  798
1477481995.797:    -97  76  10  798
1477481995.797:    344  76  10  798
1477481995.797:   -110  76  10  798
1477481995.797:    345  76  10  798
1477481995.797:   -254  76  10  798
1477481995.798:    252  76  10  798
1477481995.798:   -258  76  10  798
1477481995.798:    172  76  10  798
1477481995.799:   -265  76  10  798
1477481995.799:    243  76  10  798
1477481995.803:   -295  76  10  798
1477481995.805:    227  76  10  798
1477481995.811:   -317  76  10  798
1477481995.811:     65  76  10  798
1477481995.812:   -424  76  10  798
1477481995.818:     31  76  10  798
1477481995.819:   -558  76  10  798
1477481995.832:    -55  76  10  798
1477481995.832:   -576  76  10  798
1477481995.832:   -131  76  10  798
1477481995.832:   -529  76  10  798
1477481995.832:     10  76  10  798
1477481995.833:   -512  76  10  798
1477481995.833:     46  76  10  798
1477481995.833:   -429  76  10  798
1477481995.833:     46  76  10  798
1477481995.837:   -334  76  10  798
1477481995.837:    234  76  10  798
1477481995.839:   -256  76  10  798
1477481995.840:    328  76  10  798
1477481995.841:   -128  76  10  798
1477481995.844:    362  76  10  798
1477481995.845:     -2  76  10  798
1477481995.858:    584  76  10  798
1477481995.859:     97  76  10  798
1477481995.860:    656  76  10  798
1477481995.860:    156  76  10  798
1477481995.860:    606  76  10  798
1477481995.860:    207  76  10  798
1477481995.860:    746  76  10  798
1477481995.861:    211  76  10  798
1477481995.863:    727  76  10  798
1477481995.865:    185  76  10  798
1477481995.869:    595  76  10  798
1477481995.869:    168  76  10  798
1477481995.871:    704  76  10  798
1477481995.873:    201  76  10  798
1477481995.882:    770  76  10  798
1477481995.882:    273  76  10  798
1477481995.882:    702  76  10  798
1477481995.882:    273  76  10  798
1477481995.883:    801  76  10  798
1477481995.887:    268  76  10  798
1477481995.887:    775  76  10  798
1477481995.889:    210  76  10  798
1477481995.891:    590  76  10  798
1477481995.895:    144  76  10  798
1477481995.897:    677  76  10  798
1477481995.898:    170  76  10  798
1477481995.900:    728  76  10  798
1477481995.901:    229  76  10  798
1477481995.905:    658  76  10  798
1477481995.906:    221  76  10  798
1477481995.907:    734  76  10  798
1477481995.911:    203  76  10  798
1477481995.913:    734  76  10  798
1477481995.913:    178  76  10  798
1477481995.916:    531  76  10  798
1477481995.916:     43  76  10  798
1477481995.918:    563  76  10  798
1477481995.919:     73  76  10  798
1477481995.924:    637  76  10  798
1477481995.924:    108  76  10  798
1477481995.940:    507  76  10  798
1477481995.941:     76  76  10  798
1477481995.943:    616  76  10  798
1477481995.944:    108  76  10  798
1477481995.945:    672  76  10  798
1477481995.945:    191  76  10  798
1477481995.946:    605  76  10  798
1477481995.946:     76  76  10  798
1477481995.963:    460  76  10  798
1477481995.963:   -104  76  10  798
1477481995.963:    570  76  10  798
1477481995.963:    244  76  10  798
1477481995.963:    703  76  10  798
1477481995.964:    101  76  10  798
1477481995.964:    402  76  10  798
1477481995.964:   -221  76  10  798
1477481995.964:    314  76  10  798
1477481995.964:   -310  76  10  798
1477481995.964:   -230  76  10  798
1477481995.965:  -1176  76  10  798
1477481995.965:  -1210  76  10  798
1477481995.969:  -2299  76  10  798
1477481995.971:  -2368  76  10  798
1477481995.972:  -3506  76  10  798
1477481995.973:  -3599  76  10  798
1477481995.975:  -4341  76  10  798
1477481995.978:  -3947  76  10  798
1477481995.979:  -4461  76  10  798
1477481995.988:  -3707  76  10  798
1477481995.989:  -3705  76  10  798
1477481995.989:  -2497  76  10  798
1477481995.989:  -2068  76  10  798
1477481995.992:   -792  76  10  798
1477481995.992:   -688  76  10  798
1477481995.994:    472  76  10  798
1477481995.994:    607  76  10  798
1477481995.996:   1575  76  10  798
1477481996.001:   1424  76  10  798
1477481996.011:   1945  76  10  798
1477481996.011:   1278  76  10  798
1477481996.011:   1684  76  10  798
1477481996.012:   1078  76  10  798
1477481996.012:   1401  76  10  798
1477481996.012:    818  76  10  798
1477481996.012:   1172  76  10  798
1477481996.015:    526  76  10  798
1477481996.023:   1050  76  10  798
1477481996.023:    604  76  10  798
1477481996.031:   1118  76  10  798
1477481996.031:    734  76  10  798
1477481996.031:   1232  76  10  798
1477481996.031:    640  76  10  798
1477481996.031:   1129  76  10  798
1477481996.033:    589  76  10  798
1477481996.033:    980  76  10  798
1477481996.035:    485  76  10  798
1477481996.036:    943  76  10  798
1477481996.037:    405  76  10  798
1477481996.040:   1008  76  10  798
1477481996.042:    575  76  10  798
1477481996.066:   1010  76  10  798
1477481996.066:    503  76  10  798
1477481996.066:    927  76  10  798
1477481996.067:    354  76  10  798
1477481996.067:    928  76  10  798
1477481996.067:    482  76  10  798
1477481996.067:    937  76  10  798
1477481996.084:    462  76  10  798
1477481996.089:    896  76  10  798
1477481996.090:    301  76  10  798
1477481996.090:    832  76  10  798
1477481996.090:    347  76  10  798
1477481996.091:    781  76  10  798
1477481996.091:    310  76  10  798
1477481996.091:    770  76  10  798
1477481996.091:    229  76  10  798
1477481996.092:    828  76  10  798
1477481996.092:    388  76  10  798
1477481996.092:    826  76  10  798
1477481996.092:    330  76  10  798
1477481996.093:    760  76  10  798
1477481996.093:    162  76  10  798
1477481996.093:    671  76  10  798
1477481996.094:    127  76  10  798
1477481996.096:    503  76  10  798
1477481996.096:     33  76  10  798
1477481996.098:    554  76  10  798
1477481996.099:     49  76  10  798
1477481996.100:    615  76  10  798
1477481996.101:    133  76  10  798
1477481996.112:    617  76  10  798
1477481996.112:    280  76  10  798
1477481996.112:    887  76  10  798
1477481996.112:    363  76  10  798
1477481996.112:    820  76  10  798
1477481996.115:    209  76  10  798
1477481996.115:    609  76  10  798
1477481996.117:    235  76  10  794
1477481996.118:    816  76  10  794
1477481996.122:    271  76  10  794
1477481996.131:    719  76  10  794
1477481996.132:    111  76  10  794
1477481996.132:    504  76  10  794
1477481996.132:     92  76  10  794
1477481996.132:    611  76  10  794
1477481996.133:     11  76  10  794
1477481996.134:    449  76  10  794
1477481996.137:   -116  76  10  794
1477481996.137:    341  76  10  794
1477481996.139:    -14  76  10  794
1477481996.142:    556  76  10  794
1477481996.143:     27  76  10  794
1477481996.152:    559  76  10  794
1477481996.152:     83  76  10  794
1477481996.152:    565  76  10  794
1477481996.153:    140  76  10  794
1477481996.154:    579  76  10  794
1477481996.157:    -82  76  10  794
1477481996.157:    357  76  10  794
1477481996.161:   -188  76  10  794
1477481996.161:    244  76  10  794
1477481996.165:   -196  76  10  794
1477481996.173:    284  76  10  794
1477481996.173:   -297  76  10  794
1477481996.173:    210  76  10  794
1477481996.173:   -309  76  10  794
1477481996.176:    132  76  10  794
1477481996.176:   -273  76  10  794
1477481996.182:    253  76  10  794
1477481996.186:   -326  76  10  794
1477481996.194:    113  76  10  794
1477481996.194:   -508  76  10  794
1477481996.194:   -145  76  10  794
1477481996.194:   -571  76  10  794
1477481996.194:    -23  76  10  794
1477481996.194:   -559  76  10  794
1477481996.194:    -62  76  10  794
1477481996.195:   -602  76  10  794
1477481996.197:   -168  76  10  794
1477481996.198:   -580  76  10  794
1477481996.200:    -75  76  10  794
1477481996.202:   -652  76  10  794
1477481996.206:   -157  76  10  794
1477481996.207:   -697  76  10  794
1477481996.209:   -328  76  10  794
1477481996.209:   -865  76  10  794
1477481996.215:   -446  76  10  794
1477481996.217:   -975  76  10  794
1477481996.229:   -306  76  10  794
1477481996.230:   -656  76  10  794
1477481996.231:   -174  76  10  794
1477481996.232:   -682  76  10  794
1477481996.232:   -263  76  10  794
1477481996.233:   -785  76  10  794
1477481996.234:   -110  76  10  794
1477481996.234:   -481  76  10  794
1477481996.235:    -38  76  10  794
1477481996.236:   -572  76  10  794
1477481996.236:   -156  76  10  794
1477481996.240:   -686  76  10  794
1477481996.247:    -44  76  10  794
1477481996.247:   -450  76  10  794
1477481996.247:     -5  76  10  794
1477481996.248:   -504  76  10  794
1477481996.249:    -74  76  10  794
1477481996.250:   -656  76  10  794
1477481996.252:   -105  76  10  794
1477481996.256:   -556  76  10  794
1477481996.257:    -61  76  10  794
1477481996.259:   -460  76  10  794
1477481996.260:     41  76  10  794
1477481996.261:   -521  76  10  794
1477481996.279:     44  76  10  794
1477481996.280:   -358  76  10  794
1477481996.281:    210  76  10  794
1477481996.281:   -142  76  10  794
1477481996.281:    364  76  10  794
1477481996.282:   -214  76  10  794
1477481996.282:    346  76  10  794
1477481996.282:    -56  76  10  794
1477481996.282:    498  76  10  794
1477481996.285:    121  76  10  794
1477481996.285:    599  76  10  794
1477481996.286:     -1  76  10  794
1477481996.289:    537  76  10  794
1477481996.290:     98  76  10  794
1477481996.291:    597  76  10  794
1477481996.293:    166  76  10  794
1477481996.298:    616  76  10  794
1477481996.300:     20  76  10  794
1477481996.319:    585  76  10  794
1477481996.321:    193  76  10  794
1477481996.321:    734  76  10  794
1477481996.322:    305  76  10  794
1477481996.323:    712  76  10  794
1477481996.324:     59  76  10  794
1477481996.325:    583  76  10  794
1477481996.326:    161  76  10  794
1477481996.328:    666  76  10  794
1477481996.329:    197  76  10  794
1477481996.329:    599  76  10  794
1477481996.329:      1  76  10  794
1477481996.329:    605  76  10  794
1477481996.329:    226  76  10  794
1477481996.330:    735  76  10  794
1477481996.330:    297  76  10  794
1477481996.330:    784  76  10  794
1477481996.332:    254  76  10  794
1477481996.335:    815  76  10  794
1477481996.338:    298  76  10  794
1477481996.351:    694  76  10  794
1477481996.352:    268  76  10  794
1477481996.353:    837  76  10  794
1477481996.354:    316  76  10  794
1477481996.356:    773  76  10  794
1477481996.357:    139  76  10  794
1477481996.369:    518  76  10  794
1477481996.369:    167  76  10  794
1477481996.370:    808  76  10  794
1477481996.371:    321  76  10  794
1477481996.372:    812  76  10  794
1477481996.372:    261  76  10  794
1477481996.374:    745  76  10  794
1477481996.374:    449  76  10  794
1477481996.375:   1064  76  10  794
1477481996.375:    497  76  10  794
1477481996.378:    882  76  10  794
1477481996.379:    211  76  10  794
1477481996.380:    577  76  10  794
1477481996.381:    190  76  10  794
1477481996.381:    752  76  10  794
1477481996.383:    174  76  10  794
1477481996.384:    597  76  10  794
1477481996.388:     10  76  10  794
1477481996.405:    456  76  10  794
1477481996.406:     83  76  10  794
1477481996.407:    597  76  10  794
1477481996.407:      3  76  10  794
1477481996.408:    509  76  10  794
1477481996.409:     43  76  10  794
1477481996.410:    522  76  10  794
1477481996.411:     71  76  10  794
1477481996.411:    523  76  10  794
1477481996.412:    -28  76  10  794
1477481996.437:    568  76  10  794
1477481996.513:    108  76  10  794
1477481996.524:    496  76  10  794
1477481996.525:    -33  76  10  794
1477481996.525:    428  76  10  794
1477481996.525:    -84  76  10  794
1477481996.525:    489  76  10  794
1477481996.525:    -30  76  10  794
1477481996.525:    374  76  10  794
1477481996.526:    -49  76  10  794
1477481996.526:    474  76  10  794
1477481996.526:   -119  76  10  794
1477481996.526:    302  76  10  794
1477481996.526:   -293  76  10  794
1477481996.526:    142  76  10  794
1477481996.526:   -242  76  10  794
1477481996.527:    242  76  10  794
1477481996.527:   -424  76  10  794
1477481996.527:    -11  76  10  794
1477481996.527:   -527  76  10  794
1477481996.527:    -15  76  10  794
1477481996.527:   -392  76  10  794
1477481996.527:     70  76  10  794
1477481996.527:   -580  76  10  794
1477481996.528:    -87  76  10  794
1477481996.528:   -507  76  10  794
1477481996.528:     78  76  10  794
1477481996.528:   -258  76  10  794
1477481996.528:    234  76  10  794
1477481996.528:   -390  76  10  794
1477481996.529:     97  76  10  794
1477481996.530:   -381  76  10  794
1477481996.530:    116  76  10  794
1477481996.530:   -290  76  10  794
1477481996.530:    178  76  10  794
1477481996.531:   -433  76  10  794
1477481996.531:     61  76  10  794
1477481996.531:   -450  76  10  794
1477481996.531:      1  76  10  794
1477481996.531:   -404  76  10  794
1477481996.531:    130  76  10  794
1477481996.531:   -404  76  10  794
1477481996.532:    112  76  10  794
1477481996.532:   -439  76  10  794
1477481996.532:    -38  76  10  794
1477481996.532:   -448  76  10  794
1477481996.532:    133  76  10  794
1477481996.532:   -346  76  10  794
1477481996.533:    199  76  10  794
1477481996.533:   -343  76  10  794
1477481996.533:     67  76  10  794
1477481996.533:   -345  76  10  794
1477481996.534:    198  76  10  794
1477481996.534:   -360  76  10  794
1477481996.534:    107  76  10  794
1477481996.534:   -457  76  10  794
1477481996.534:     -5  76  10  794
1477481996.534:   -362  76  10  794
1477481996.535:    190  76  10  794
1477481996.535:   -388  76  10  794
1477481996.535:     93  76  10  794
1477481996.535:   -401  76  10  794
1477481996.535:    114  76  10  794
1477481996.535:   -256  76  10  794
1477481996.535:    222  76  10  794
1477481996.536:   -399  76  10  794
1477481996.536:    124  76  10  794
1477481996.536:   -300  76  10  794
1477481996.539:    221  76  10  794
1477481996.539:   -207  76  10  794
1477481996.541:    242  76  10  794
1477481996.544:   -330  76  10  794
1477481996.548:    251  76  10  794
1477481996.549:   -208  76  10  794
1477481996.557:    186  76  10  794
1477481996.558:   -360  76  10  794
1477481996.558:     69  76  10  794
1477481996.559:   -451  76  10  794
1477481996.560:    155  76  10  794
1477481996.562:   -338  76  10  794
1477481996.563:     25  76  10  794
1477481996.564:   -471  76  10  794
1477481996.566:     70  76  10  794
1477481996.567:   -363  76  10  794
1477481996.580:    251  76  10  794
1477481996.580:   -287  76  10  794
1477481996.580:     51  76  10  794
1477481996.580:   -434  76  10  794
1477481996.580:    110  76  10  794
1477481996.580:   -366  76  10  794
1477481996.581:    185  76  10  794
1477481996.583:   -369  76  10  794
1477481996.586:     13  76  10  794
1477481996.590:   -434  76  10  794
1477481996.590:     70  76  10  794
1477481996.593:   -503  76  10  794
1477481996.603:    -10  76  10  794
1477481996.604:   -527  76  10  794
1477481996.604:    -66  76  10  794
1477481996.604:   -482  76  10  794
1477481996.605:    -21  76  10  794
1477481996.605:   -651  76  10  794
1477481996.608:   -164  76  10  794
1477481996.609:   -642  76  10  794
1477481996.609:   -165  76  10  794
1477481996.611:   -613  76  10  794
1477481996.621:   -181  76  10  794
1477481996.621:   -785  76  10  794
1477481996.621:   -240  76  10  794
1477481996.621:   -690  76  10  794
1477481996.621:   -222  76  10  794
1477481996.622:   -667  76  10  794
1477481996.625:   -185  76  10  794
1477481996.628:   -718  76  10  794
1477481996.629:   -137  76  10  794
1477481996.632:   -593  76  10  794
1477481996.633:   -113  76  10  794
1477481996.640:   -480  76  10  794
1477481996.641:    109  76  10  794
1477481996.641:   -371  76  10  794
1477481996.642:    188  76  10  794
1477481996.644:   -309  76  10  794
1477481996.648:    166  76  10  794
1477481996.648:   -187  76  10  794
1477481996.650:    377  76  10  794
1477481996.651:   -183  76  10  794
1477481996.652:    301  76  10  794
1477481996.654:   -194  76  10  794
1477481996.669:    348  76  10  794
1477481996.670:     68  76  10  794
1477481996.670:    680  76  10  794
1477481996.671:    150  76  10  794
1477481996.671:    646  76  10  794
1477481996.678:    108  76  10  794
1477481996.686:    533  76  10  794
1477481996.687:     85  76  10  794
1477481996.687:    559  76  10  794
1477481996.688:    -13  76  10  794
1477481996.689:    527  76  10  794
1477481996.689:     51  76  10  794
1477481996.690:    508  76  10  794
1477481996.691:     78  76  10  794
1477481996.692:    596  76  10  794
1477481996.693:    114  76  10  794
1477481996.694:    760  76  10  794
1477481996.694:    337  76  10  794
1477481996.696:    735  76  10  794
1477481996.698:    159  76  10  794
1477481996.699:    535  76  10  794
1477481996.699:    -14  76  10  794
1477481996.699:    638  76  10  794
1477481996.700:    238  76  10  794
1477481996.703:    652  76  10  794
1477481996.704:    104  76  10  794
1477481996.710:    541  76  10  794
1477481996.710:     50  76  10  794
1477481996.711:    708  76  10  794
1477481996.712:    282  76  10  794
1477481996.715:    717  76  10  794
1477481996.720:    255  76  10  794
1477481996.731:    762  76  10  794
1477481996.731:    231  76  10  794
1477481996.731:    755  76  10  794
1477481996.731:    216  76  10  794
1477481996.732:    637  76  10  794
1477481996.732:    217  76  10  794
1477481996.732:    724  76  10  794
1477481996.732:    134  76  10  794
1477481996.736:    614  76  10  794
1477481996.737:     89  76  10  794
1477481996.738:    542  76  10  794
1477481996.740:    128  76  10  794
1477481996.745:    637  76  10  794
1477481996.746:     98  76  10  794
1477481996.747:    672  76  10  794
1477481996.749:    202  76  10  794
1477481996.751:    619  76  10  794
1477481996.753:    129  76  10  794
1477481996.754:    587  76  10  794
1477481996.759:     -2  76  10  794
1477481996.759:    421  76  10  794
1477481996.761:   -338  76  10  794
1477481996.762:   -295  76  10  794
1477481996.763:  -1203  76  10  794
1477481996.769:  -1240  76  10  794
1477481996.770:  -2423  76  10  794
1477481996.785:  -2606  76  10  794
1477481996.786:  -3815  76  10  794
1477481996.787:  -3969  76  10  794
1477481996.787:  -4840  76  10  794
1477481996.788:  -4620  76  10  794
1477481996.789:  -5236  76  10  794
1477481996.789:  -4440  76  10  794
1477481996.790:  -4327  76  10  794
1477481996.791:  -3048  76  10  794
1477481996.792:  -2597  76  10  794
1477481996.792:  -1272  76  10  794
1477481996.793:  -1045  76  10  794
1477481996.805:    255  76  10  794
1477481996.806:    463  76  10  794
1477481996.806:   1451  76  10  794
1477481996.807:   1334  76  10  794
1477481996.808:   1921  76  10  794
1477481996.808:   1276  76  10  794
1477481996.809:   1630  76  10  794
1477481996.810:    970  76  10  794
1477481996.811:   1331  76  10  794
1477481996.815:    883  76  10  794
1477481996.816:   1367  76  10  794
1477481996.817:    757  76  10  794
1477481996.818:   1233  76  10  794
1477481996.821:    739  76  10  794
1477481996.822:   1252  76  10  794
1477481996.823:    884  76  10  794
1477481996.847:   1358  76  10  794
1477481996.847:    697  76  10  794
1477481996.853:   1114  76  10  794
1477481996.854:    547  76  10  794
1477481996.854:    974  76  10  794
1477481996.855:    561  76  10  794
1477481996.856:   1093  76  10  794
1477481996.856:    582  76  10  794
1477481996.857:   1155  76  10  794
1477481996.858:    671  76  10  794
1477481996.858:   1089  76  10  794
1477481996.859:    615  76  10  794
1477481996.860:   1071  76  10  794
1477481996.860:    465  76  10  794
1477481996.873:    914  76  10  794
1477481996.874:    298  76  10  794
1477481996.875:    642  76  10  794
1477481996.875:    201  76  10  794
1477481996.876:    779  76  10  794
1477481996.877:    313  76  10  794
1477481996.877:    860  76  10  794
1477481996.878:    300  76  10  794
1477481996.879:    679  76  10  794
1477481996.879:    248  76  10  794
1477481996.880:    815  76  10  794
1477481996.881:    346  76  10  794
1477481996.881:    936  76  10  794
1477481996.882:    447  76  10  794
1477481996.883:    852  76  10  794
1477481996.884:    364  76  10  794
1477481996.894:    836  76  10  794
1477481996.895:    301  76  10  794
1477481996.896:    868  76  10  794
1477481996.896:    353  76  10  794
1477481996.897:    717  76  10  794
1477481996.898:    214  76  10  794
1477481996.898:    712  76  10  794
1477481996.898:    194  76  10  794
1477481996.901:    726  76  10  790
1477481996.902:    164  76  10  790
1477481996.907:    537  76  10  790
1477481996.907:     98  76  10  790
1477481996.913:    632  76  10  790
1477481996.915:     81  76  10  790
1477481996.916:    571  76  10  790
1477481996.917:     36  76  10  790
1477481996.917:    494  76  10  790
1477481996.918:    117  76  10  790
1477481996.918:    668  76  10  790
1477481996.921:    150  76  10  790
1477481996.923:    708  76  10  790
1477481996.924:    212  76  10  790
1477481996.930:    620  76  10  790
1477481996.931:    125  76  10  790
1477481996.951:    581  76  10  790
1477481996.952:     33  76  10  790
1477481996.953:    595  76  10  790
1477481996.953:    105  76  10  790
1477481996.954:    531  76  10  790
1477481996.955:     91  76  10  790
1477481996.955:    605  76  10  790
1477481996.956:     62  76  10  790
1477481996.956:    588  76  10  790
1477481996.957:     60  76  10  790
1477481996.958:    454  76  10  790
1477481996.958:    -45  76  10  790
1477481996.959:    388  76  10  790
1477481996.959:   -204  76  10  790
1477481996.962:    337  76  10  790
1477481996.962:   -132  76  10  790
1477481996.983:    314  76  10  790
1477481996.984:   -143  76  10  790
1477481996.985:    339  76  10  790
1477481996.986:   -216  76  10  790
1477481996.986:    309  76  10  790
1477481996.987:   -214  76  10  790
1477481996.988:    220  76  10  790
1477481996.988:   -185  76  10  790
1477481996.989:    320  76  10  790
1477481996.990:   -305  76  10  790
1477481996.990:     94  76  10  790
1477481996.991:   -516  76  10  790
1477481996.992:   -101  76  10  790
1477481996.993:   -512  76  10  790
1477481997.007:    -15  76  10  790
1477481997.007:   -613  76  10  790
1477481997.007:   -127  76  10  790
1477481997.008:   -654  76  10  790
1477481997.009:   -240  76  10  790
1477481997.010:   -702  76  10  790
1477481997.011:   -198  76  10  790
1477481997.013:   -714  76  10  790
1477481997.026:   -173  76  10  790
1477481997.027:   -744  76  10  790
1477481997.027:   -418  76  10  790
1477481997.027:   -899  76  10  790
1477481997.028:   -323  76  10  790
1477481997.029:   -748  76  10  790
1477481997.029:   -143  76  10  790
1477481997.029:   -646  76  10  790
1477481997.030:   -222  76  10  790
1477481997.030:   -641  76  10  790
1477481997.031:   -120  76  10  790
1477481997.031:   -692  76  10  790
1477481997.031:   -211  76  10  790
1477481997.031:   -741  76  10  790
1477481997.034:   -291  76  10  790
1477481997.035:   -703  76  10  790
1477481997.045:   -211  76  10  790
1477481997.045:   -787  76  10  790
1477481997.046:   -232  76  10  790
1477481997.048:   -646  76  10  790
1477481997.049:    -96  76  10  790
1477481997.050:   -451  76  10  790
1477481997.052:     62  76  10  790
1477481997.053:   -517  76  10  790
1477481997.062:    -15  76  10  790
1477481997.063:   -518  76  10  790
1477481997.064:    -55  76  10  790
1477481997.065:   -449  76  10  790
1477481997.066:     95  76  10  790
1477481997.067:   -413  76  10  790
1477481997.068:    166  76  10  790
1477481997.069:   -280  76  10  790
1477481997.080:    220  76  10  790
1477481997.082:   -152  76  10  790
1477481997.083:    413  76  10  790
1477481997.086:    -75  76  10  790
1477481997.098:    514  76  10  790
1477481997.101:     32  76  10  790
1477481997.102:    435  76  10  790
1477481997.103:    -55  76  10  790
1477481997.106:    428  76  10  790
1477481997.107:    -70  76  10  790
1477481997.109:    551  76  10  790
1477481997.109:     94  76  10  790
1477481997.110:    519  76  10  790
1477481997.110:     86  76  10  790
1477481997.110:    676  76  10  790
1477481997.110:    276  76  10  790
1477481997.111:    927  76  10  790
1477481997.111:    443  76  10  790
1477481997.111:    832  76  10  790
1477481997.111:    368  76  10  790
1477481997.112:    888  76  10  790
1477481997.112:    350  76  10  790
1477481997.112:    848  76  10  790
1477481997.113:    288  76  10  790
1477481997.116:    706  76  10  790
1477481997.120:    307  76  10  790
1477481997.130:    853  76  10  790
1477481997.130:    304  76  10  790
1477481997.130:    805  76  10  790
1477481997.131:    288  76  10  790
1477481997.131:    747  76  10  790
1477481997.131:    327  76  10  790
1477481997.134:    790  76  10  790
1477481997.135:    173  76  10  790
1477481997.136:    696  76  10  790
1477481997.138:    275  76  10  790
1477481997.147:    817  76  10  790
1477481997.148:    416  76  10  790
1477481997.149:    853  76  10  790
1477481997.150:    220  76  10  790
1477481997.151:    739  76  10  790
1477481997.151:    279  76  10  790
1477481997.152:    740  76  10  790
1477481997.152:    267  76  10  790
1477481997.157:    699  76  10  790
1477481997.158:    112  76  10  790
1477481997.164:    657  76  10  790
1477481997.165:    176  76  10  790
1477481997.166:    616  76  10  790
1477481997.166:    176  76  10  790
1477481997.167:    684  76  10  790
1477481997.170:    156  76  10  790
1477481997.171:    706  76  10  790
1477481997.176:    196  76  10  790
1477481997.178:    587  76  10  790
1477481997.179:     73  76  10  790
1477481997.179:    501  76  10  790
1477481997.180:    -44  76  10  790
1477481997.182:    592  76  10  790
1477481997.186:    203  76  10  790
1477481997.201:    630  76  10  790
1477481997.247:     38  76  10  790
1477481997.248:    365  76  10  790
1477481997.248:   -203  76  10  790
1477481997.248:    504  76  10  790
1477481997.249:    209  76  10  790
1477481997.249:    713  76  10  790
1477481997.249:    192  76  10  790
1477481997.249:    584  76  10  790
1477481997.249:     13  76  10  790
1477481997.249:    618  76  10  790
1477481997.249:    190  76  10  790
1477481997.250:    631  76  10  790
1477481997.250:    127  76  10  790
1477481997.250:    527  76  10  790
1477481997.250:   -110  76  10  790
1477481997.250:    384  76  10  790
1477481997.252:   -105  76  10  790
1477481997.252:    379  76  10  790
1477481997.252:    -12  76  10  790
1477481997.252:    511  76  10  790
1477481997.252:    -35  76  10  790
1477481997.252:    479  76  10  790
1477481997.253:    -69  76  10  790
1477481997.253:    326  76  10  790
1477481997.253:    -95  76  10  790
1477481997.253:    481  76  10  790
1477481997.253:      2  76  10  790
1477481997.253:    525  76  10  790
1477481997.254:    -67  76  10  790
1477481997.254:    307  76  10  790
1477481997.254:    -93  76  10  790
1477481997.254:    483  76  10  790
1477481997.254:    -50  76  10  790
1477481997.254:    432  76  10  790
1477481997.255:   -113  76  10  790
1477481997.266:    337  76  10  790
1477481997.267:    -76  76  10  790
1477481997.267:    392  76  10  790
1477481997.269:   -222  76  10  790
1477481997.269:    297  76  10  790
1477481997.269:   -159  76  10  790
1477481997.269:    293  76  10  790
1477481997.269:   -213  76  10  790
1477481997.276:    192  76  10  790
1477481997.276:   -366  76  10  790
1477481997.287:    266  76  10  790
1477481997.287:   -130  76  10  790
1477481997.288:    327  76  10  790
1477481997.288:   -158  76  10  790
1477481997.288:    303  76  10  790
1477481997.289:   -224  76  10  790
1477481997.289:    373  76  10  790
1477481997.289:    -76  76  10  790
1477481997.293:    388  76  10  790
1477481997.294:    -35  76  10  790
1477481997.306:    461  76  10  790
1477481997.306:   -108  76  10  790
1477481997.307:    407  76  10  790
1477481997.307:   -109  76  10  790
1477481997.307:    314  76  10  790
1477481997.307:   -135  76  10  790
1477481997.308:    351  76  10  790
1477481997.310:   -206  76  10  790
1477481997.311:    327  76  10  790
1477481997.316:   -165  76  10  790
1477481997.316:    312  76  10  790
1477481997.318:    -43  76  10  790
1477481997.330:    550  76  10  790
1477481997.330:     47  76  10  790
1477481997.331:    556  76  10  790
1477481997.331:      2  76  10  790
1477481997.331:    424  76  10  790
1477481997.331:     17  76  10  790
1477481997.331:    530  76  10  790
1477481997.333:    -61  76  10  790
1477481997.334:    416  76  10  790
1477481997.364:    -99  76  10  790
1477481997.369:    379  76  10  790
1477481997.370:     -5  76  10  790
1477481997.371:    503  76  10  790
1477481997.372:    -83  76  10  790
1477481997.374:    407  76  10  790
1477481997.374:   -148  76  10  790
1477481997.374:    214  76  10  790
1477481997.374:   -295  76  10  790
1477481997.375:    193  76  10  790
1477481997.375:   -289  76  10  790
1477481997.375:    339  76  10  790
1477481997.375:   -129  76  10  790
1477481997.375:    277  76  10  790
1477481997.377:   -165  76  10  790
1477481997.377:    424  76  10  790
1477481997.377:      4  76  10  790
1477481997.377:    575  76  10  790
1477481997.377:    -35  76  10  790
1477481997.377:    253  76  10  790
1477481997.377:   -232  76  10  790
1477481997.379:    330  76  10  790
1477481997.380:   -156  76  10  790
1477481997.391:    362  76  10  790
1477481997.392:   -211  76  10  790
1477481997.392:    181  76  10  790
1477481997.392:   -257  76  10  790
1477481997.392:    226  76  10  790
1477481997.392:   -379  76  10  790
1477481997.395:    120  76  10  790
1477481997.405:   -357  76  10  790
1477481997.412:    119  76  10  790
1477481997.412:   -333  76  10  790
1477481997.412:     83  76  10  790
1477481997.412:   -539  76  10  790
1477481997.412:      6  76  10  790
1477481997.412:   -435  76  10  790
1477481997.421:     21  76  10  790
1477481997.421:   -476  76  10  790
1477481997.432:    -65  76  10  790
1477481997.432:   -662  76  10  790
1477481997.433:   -113  76  10  790
1477481997.433:   -580  76  10  790
1477481997.433:   -138  76  10  790
1477481997.433:   -606  76  10  790
1477481997.433:   -134  76  10  790
1477481997.433:   -662  76  10  790
1477481997.433:    -65  76  10  790
1477481997.434:   -518  76  10  790
1477481997.434:    -92  76  10  790
1477481997.436:   -575  76  10  790
1477481997.440:    -77  76  10  790
1477481997.440:   -528  76  10  790
1477481997.442:    165  76  10  790
1477481997.443:   -230  76  10  790
1477481997.445:    209  76  10  790
1477481997.447:   -260  76  10  790
1477481997.455:    280  76  10  790
1477481997.455:   -118  76  10  790
1477481997.455:    603  76  10  790
1477481997.456:    205  76  10  790
1477481997.457:    615  76  10  790
1477481997.458:     99  76  10  790
1477481997.461:    564  76  10  790
1477481997.463:     60  76  10  790
1477481997.468:    667  76  10  790
1477481997.469:    187  76  10  790
1477481997.489:    580  76  10  790
1477481997.489:    100  76  10  790
1477481997.489:    621  76  10  790
1477481997.490:    156  76  10  790
1477481997.490:    773  76  10  790
1477481997.490:    291  76  10  790
1477481997.490:    683  76  10  790
1477481997.491:    184  76  10  790
1477481997.491:    633  76  10  790
1477481997.491:     56  76  10  790
1477481997.491:    579  76  10  790
1477481997.491:     67  76  10  790
1477481997.493:    469  76  10  790
1477481997.494:    -21  76  10  790
1477481997.496:    448  76  10  790
1477481997.498:    -54  76  10  790
1477481997.510:    609  76  10  790
1477481997.511:    228  76  10  790
1477481997.511:    685  76  10  790
1477481997.512:    183  76  10  790
1477481997.512:    623  76  10  790
1477481997.512:     73  76  10  790
1477481997.514:    620  76  10  790
1477481997.515:     81  76  10  790
1477481997.516:    457  76  10  790
1477481997.517:     15  76  10  790
1477481997.529:    584  76  10  790
1477481997.530:     93  76  10  790
1477481997.530:    610  76  10  790
1477481997.531:     56  76  10  790
1477481997.532:    504  76  10  790
1477481997.532:    150  76  10  790
1477481997.534:    703  76  10  790
1477481997.534:     99  76  10  790
1477481997.537:    525  76  10  790
1477481997.538:    -34  76  10  790
1477481997.548:    422  76  10  790
1477481997.550:      0  76  10  790
1477481997.551:    447  76  10  790
1477481997.552:   -163  76  10  790
1477481997.552:    411  76  10  790
1477481997.553:     49  76  10  790
1477481997.554:    610  76  10  790
1477481997.554:    199  76  10  790
1477481997.556:    652  76  10  790
1477481997.559:     65  76  10  790
1477481997.567:    582  76  10  790
1477481997.567:    -28  76  10  790
1477481997.569:    101  76  10  790
1477481997.569:   -836  76  10  790
1477481997.570:   -937  76  10  790
1477481997.570:  -2120  76  10  790
1477481997.571:  -2253  76  10  790
1477481997.573:  -3465  76  10  790
1477481997.575:  -3716  76  10  790
1477481997.576:  -4704  76  10  790
1477481997.587:  -4547  76  10  790
1477481997.588:  -5214  76  10  790
1477481997.589:  -4564  76  10  790
1477481997.589:  -4674  76  10  790
1477481997.590:  -3551  76  10  790
1477481997.591:  -3099  76  10  790
1477481997.591:  -1681  76  10  790
1477481997.595:  -1395  76  10  790
1477481997.606:    -84  76  10  790
1477481997.606:    182  76  10  790
1477481997.609:   1321  76  10  790
1477481997.612:   1374  76  10  790
1477481997.613:   2047  76  10  790
1477481997.614:   1419  76  10  790
1477481997.615:   1800  76  10  790
1477481997.616:   1188  76  10  790
1477481997.616:   1551  76  10  790
1477481997.617:   1036  76  10  790
1477481997.618:   1449  76  10  790
1477481997.618:    842  76  10  790
1477481997.618:   1381  76  10  790
1477481997.622:    927  76  10  790
1477481997.623:   1404  76  10  790
1477481997.624:    968  76  10  790
1477481997.625:   1424  76  10  790
1477481997.628:    810  76  10  790
1477481997.647:   1298  76  10  790
1477481997.647:    779  76  10  790
1477481997.647:   1199  76  10  790
1477481997.647:    707  76  10  790
1477481997.647:   1124  76  10  790
1477481997.648:    544  76  10  790
1477481997.648:   1158  76  10  790
1477481997.648:    794  76  10  790
1477481997.648:   1295  76  10  790
1477481997.650:    774  76  10  790
1477481997.650:   1097  76  10  790
1477481997.653:    417  76  10  790
1477481997.653:    944  76  10  790
1477481997.654:    505  76  10  790
1477481997.657:    969  76  10  790
1477481997.659:    495  76  10  790
1477481997.669:    942  76  10  790
1477481997.670:    374  76  10  790
1477481997.683:    923  76  10  790
1477481997.684:    424  76  10  790
1477481997.684:    817  76  10  790
1477481997.685:    332  76  10  790
1477481997.685:    830  76  10  790
1477481997.685:    345  76  10  790
1477481997.685:    963  76  10  790
1477481997.686:    495  76  10  790
1477481997.686:    894  76  10  790
1477481997.686:    412  76  10  790
1477481997.686:    930  76  10  790
1477481997.687:    455  76  10  790
1477481997.691:   1035  76  10  790
1477481997.692:    480  76  10  790
1477481997.693:    803  76  10  790
1477481997.694:    307  76  10  790
1477481997.695:    846  76  10  790
1477481997.698:    359  76  10  790
1477481997.700:    887  76  10  790
1477481997.705:    303  76  10  790
1477481997.705:    671  76  10  790
1477481997.707:    244  76  10  790
1477481997.724:    777  76  10  790
1477481997.724:    173  76  10  790
1477481997.724:    556  76  10  790
1477481997.725:    -85  76  10  790
1477481997.725:    332  76  10  790
1477481997.725:     -9  76  10  790
1477481997.726:    589  76  10  790
1477481997.726:     56  76  10  790
1477481997.727:    552  76  10  790
1477481997.727:     40  76  10  790
1477481997.728:    521  76  10  790
1477481997.733:    139  76  10  790
1477481997.733:    650  76  10  790
1477481997.734:     73  76  10  790
1477481997.736:    584  76  10  790
1477481997.736:     62  76  10  790
1477481997.739:    455  76  10  790
1477481997.741:    -52  76  10  790
1477481997.750:    397  76  10  790
1477481997.750:   -129  76  10  790
1477481997.750:    494  76  10  790
1477481997.750:     57  76  10  790
1477481997.750:    468  76  10  790
1477481997.753:    -50  76  10  790
1477481997.756:    399  76  10  790
1477481997.756:   -128  76  10  790
1477481997.759:    470  76  10  790
1477481997.760:    -12  76  10  790
1477481997.764:    362  76  10  790
1477481997.765:   -175  76  10  790
1477481997.766:    257  76  10  790
1477481997.769:   -310  76  10  790
1477481997.783:    231  76  10  790
1477481997.783:   -277  76  10  790
1477481997.783:    140  76  10  790
1477481997.783:   -309  76  10  790
1477481997.783:    197  76  10  790
1477481997.783:   -355  76  10  790
1477481997.784:    138  76  10  790
1477481997.784:   -442  76  10  790
1477481997.786:    -74  76  10  790
1477481997.788:   -536  76  10  790
1477481997.793:    -40  76  10  790
1477481997.793:   -612  76  10  790
1477481997.796:   -116  76  10  790
1477481997.796:   -635  76  10  790
1477481997.799:   -153  76  10  790
1477481997.800:   -513  76  10  790
1477481997.809:      7  76  10  790
1477481997.809:   -617  76  10  790
1477481997.809:   -184  76  10  790
1477481997.810:   -734  76  10  790
1477481997.811:   -279  76  10  790
1477481997.812:   -695  76  10  790
1477481997.814:   -228  76  10  790
1477481997.815:   -851  76  10  790
1477481997.817:   -354  76  10  790
1477481997.819:   -830  76  10  790
1477481997.828:   -348  76  10  790
1477481997.828:   -782  76  10  790
1477481997.828:   -324  76  10  790
1477481997.829:   -898  76  10  790
1477481997.829:   -319  76  10  790
1477481997.833:   -743  76  10  790
1477481997.834:   -260  76  10  790
1477481997.837:   -702  76  10  790
1477481997.848:   -196  76  10  790
1477481997.848:   -663  76  10  790
1477481997.848:      0  76  10  790
1477481997.848:   -442  76  10  790
1477481997.849:    -75  76  10  790
1477481997.849:   -644  76  10  790
1477481997.851:   -216  76  10  790
1477481997.852:   -732  76  10  790
1477481997.853:   -124  76  10  790
1477481997.854:   -609  76  10  790
1477481997.860:   -205  76  10  790
1477481997.861:   -633  76  10  790
1477481997.862:    -29  76  10  790
1477481997.863:   -431  76  10  790
1477481997.864:    213  76  10  790
1477481997.870:   -235  76  10  790
1477481997.883:    239  76  10  790
1477481997.883:   -140  76  10  790
1477481997.883:    423  76  10  790
1477481997.884:    -85  76  10  790
1477481997.884:    476  76  10  790
1477481997.884:      0  76  10  790
1477481997.885:    457  76  10  790
1477481997.885:     23  76  10  790
1477481997.888:    520  76  10  790
1477481997.888:     -3  76  10  790
1477481997.889:    578  76  10  790
1477481997.891:     84  76  10  790
1477481997.901:    466  76  10  790
1477481997.902:    -24  76  10  790
1477481997.904:    506  76  10  790
1477481997.905:     70  76  10  790
1477481997.906:    698  76  10  790
1477481997.907:    196  76  10  790
1477481997.907:    580  76  10  790
1477481997.908:    135  76  10  790
1477481997.921:    684  76  10  790
1477481997.921:    164  76  10  790
1477481997.922:    662  76  10  790
1477481997.922:    106  76  10  790
1477481997.922:    525  76  10  790
1477481997.922:     93  76  10  790
1477481997.923:    564  76  10  790
1477481997.923:    -30  76  10  790
1477481997.924:    534  76  10  790
1477481997.929:    162  76  10  790
1477481997.929:    714  76  10  790
1477481997.931:    250  76  10  790
1477481997.932:    627  76  10  790
1477481997.934:     39  76  10  790
1477481997.937:    714  76  10  790
1477481997.938:    400  76  10  790
1477481997.943:    870  76  10  790
1477481997.943:    299  76  10  790
1477481997.953:    657  76  10  790
1477481997.954:     99  76  10  790
1477481997.954:    712  76  10  790
1477481997.954:    234  76  10  790
1477481997.954:    605  76  10  790
1477481997.957:    123  76  10  790
1477481997.957:    676  76  10  790
1477481997.959:    217  76  10  790
1477481997.959:    779  76  10  790
1477481997.961:    231  76  10  790
1477481997.963:    638  76  10  790
1477481997.965:    262  76  10  790
1477481997.974:    855  76  10  790
1477481997.975:    318  76  10  790
1477481997.975:    756  76  10  790
1477481997.976:    126  76  10  790
1477481997.977:    501  76  10  790
1477481997.977:     90  76  10  790
1477481997.979:    660  76  10  790
1477481997.983:    162  76  10  790
1477481997.994:    708  76  10  790
1477481997.995:    180  76  10  790
1477481997.995:    572  76  10  790
1477481997.996:     97  76  10  790
1477481998.071:    596  76  10  790
1477481998.071:     97  76  10  790
1477481998.071:    706  76  10  790
1477481998.071:    232  76  10  790
1477481998.071:    611  76  10  790
1477481998.072:     71  76  10  790
1477481998.096:    499  76  10  790
1477481998.096:    -44  76  10  790
1477481998.096:    562  76  10  790
1477481998.096:    126  76  10  790
1477481998.096:    576  76  10  790
1477481998.097:    106  76  10  790
1477481998.097:    564  76  10  790
1477481998.097:     -8  76  10  790
1477481998.097:    543  76  10  790
1477481998.097:     80  76  10  790
1477481998.098:    539  76  10  790
1477481998.098:     68  76  10  790
1477481998.098:    481  76  10  790
1477481998.098:   -164  76  10  790
1477481998.098:    334  76  10  790
1477481998.099:   -136  76  10  790
1477481998.099:    358  76  10  790
1477481998.099:    -36  76  10  790
1477481998.099:    486  76  10  790
1477481998.099:    -55  76  10  790
1477481998.099:    476  76  10  790
1477481998.100:    -48  76  10  790
1477481998.100:    372  76  10  790
1477481998.100:    -60  76  10  790
1477481998.100:    445  76  10  790
1477481998.101:   -131  76  10  790
1477481998.101:    367  76  10  790
1477481998.101:   -129  76  10  790
1477481998.101:    377  76  10  790
1477481998.101:     19  76  10  790
1477481998.102:    533  76  10  790
1477481998.102:    -63  76  10  790
1477481998.102:    446  76  10  790
1477481998.102:    -27  76  10  790
1477481998.102:    434  76  10  790
1477481998.103:    -27  76  10  790
1477481998.103:    445  76  10  790
1477481998.103:    -64  76  10  790
1477481998.103:    576  76  10  790
1477481998.103:    141  76  10  790
1477481998.103:    540  76  10  790
1477481998.104:     23  76  10  790
1477481998.104:    510  76  10  790
1477481998.104:     26  76  10  790
1477481998.104:    602  76  10  790
1477481998.104:     39  76  10  790
1477481998.105:    366  76  10  790
1477481998.106:   -110  76  10  790
1477481998.118:    453  76  10  790
1477481998.118:    -11  76  10  790
1477481998.119:    554  76  10  790
1477481998.119:     29  76  10  790
1477481998.119:    449  76  10  790
1477481998.119:     39  76  10  790
1477481998.119:    558  76  10  790
1477481998.119:    -48  76  10  790
1477481998.120:    366  76  10  790
1477481998.120:   -227  76  10  790
1477481998.120:    217  76  10  790
1477481998.121:   -131  76  10  790
1477481998.122:    437  76  10  790
1477481998.123:   -144  76  10  790
1477481998.124:    302  76  10  790
1477481998.126:   -238  76  10  790
1477481998.141:    254  76  10  790
1477481998.142:    -88  76  10  790
1477481998.144:    459  76  10  790
1477481998.144:    -95  76  10  790
1477481998.145:    438  76  10  790
1477481998.146:    -42  76  10  790
1477481998.147:    402  76  10  790
1477481998.148:    -70  76  10  790
1477481998.149:    390  76  10  790
1477481998.149:   -131  76  10  790
1477481998.162:    496  76  10  790
1477481998.163:     47  76  10  790
1477481998.163:    417  76  10  790
1477481998.163:   -154  76  10  790
1477481998.163:    272  76  10  790
1477481998.163:   -211  76  10  790
1477481998.163:    477  76  10  790
1477481998.163:     84  76  10  790
1477481998.163:    506  76  10  790
1477481998.166:    -24  76  10  790
1477481998.171:    407  76  10  790
1477481998.171:   -136  76  10  790
1477481998.171:    458  76  10  790
1477481998.173:     -1  76  10  790
1477481998.176:    427  76  10  790
1477481998.181:    -39  76  10  790
1477481998.190:    447  76  10  790
1477481998.191:    -93  76  10  790
1477481998.191:    450  76  10  790
1477481998.191:    -60  76  10  790
1477481998.191:    367  76  10  790
1477481998.192:    -53  76  10  790
1477481998.193:    477  76  10  790
1477481998.194:    -73  76  10  790
1477481998.195:    416  76  10  790
1477481998.197:   -138  76  10  790
1477481998.198:    279  76  10  790
1477481998.205:   -156  76  10  790
1477481998.211:    298  76  10  790
1477481998.212:   -352  76  10  790
1477481998.212:    103  76  10  790
1477481998.212:   -409  76  10  790
1477481998.212:     51  76  10  790
1477481998.216:   -401  76  10  790
1477481998.217:     29  76  10  790
1477481998.217:   -573  76  10  790
1477481998.218:    -14  76  10  790
1477481998.221:   -464  76  10  790
1477481998.223:    -51  76  10  790
1477481998.227:   -599  76  10  790
1477481998.235:   -194  76  10  790
1477481998.235:   -739  76  10  790
1477481998.235:   -135  76  10  790
1477481998.236:   -608  76  10  790
1477481998.236:   -207  76  10  790
1477481998.236:   -674  76  10  790
1477481998.238:   -125  76  10  790
1477481998.239:   -564  76  10  790
1477481998.241:     62  76  10  790
1477481998.244:   -417  76  10  790
1477481998.273:     16  76  10  790
1477481998.274:   -396  76  10  790
1477481998.274:    160  76  10  790
1477481998.274:   -338  76  10  790
1477481998.275:    235  76  10  790
1477481998.275:   -213  76  10  790
1477481998.276:    321  76  10  790
1477481998.276:     15  76  10  790
1477481998.277:    628  76  10  790
1477481998.277:    134  76  10  790
1477481998.277:    694  76  10  790
1477481998.277:    240  76  10  790
1477481998.278:    769  76  10  790
1477481998.278:    429  76  10  790
1477481998.279:    958  76  10  790
1477481998.279:    353  76  10  790
1477481998.279:    820  76  10  790
1477481998.281:    309  76  10  790
1477481998.281:    786  76  10  790
1477481998.283:    358  76  10  790
1477481998.287:    793  76  10  790
1477481998.287:    159  76  10  790
1477481998.303:    676  76  10  790
1477481998.303:    219  76  10  790
1477481998.303:    671  76  10  790
1477481998.303:    168  76  10  790
1477481998.304:    572  76  10  790
1477481998.304:      7  76  10  790
1477481998.304:    633  76  10  790
1477481998.304:    234  76  10  790
1477481998.306:    687  76  10  790
1477481998.309:    194  76  10  790
1477481998.309:    644  76  10  790
1477481998.312:     91  76  10  790
1477481998.312:    626  76  10  790
1477481998.314:     85  76  10  790
1477481998.324:    491  76  10  790
1477481998.324:    102  76  10  790
1477481998.324:    706  76  10  790
1477481998.324:    197  76  10  790
1477481998.324:    651  76  10  790
1477481998.327:     45  76  10  790
1477481998.328:    496  76  10  790
1477481998.330:    211  76  10  790
1477481998.331:    859  76  10  790
1477481998.336:    325  76  10  790
1477481998.349:    781  76  10  790
1477481998.350:    237  76  10  790
1477481998.350:    704  76  10  790
1477481998.350:    282  76  10  790
1477481998.351:    708  76  10  790
1477481998.351:     58  76  10  790
1477481998.351:    559  76  10  790
1477481998.352:     76  76  10  790
1477481998.353:    491  76  10  790
1477481998.354:    -20  76  10  790
1477481998.356:    460  76  10  790
1477481998.357:     29  76  10  790
1477481998.362:    755  76  10  790
1477481998.363:    358  76  10  790
1477481998.374:    748  76  10  790
1477481998.375:    194  76  10  790
1477481998.375:    566  76  10  790
1477481998.376:   -179  76  10  790
1477481998.376:      1  76  10  790
1477481998.378:   -991  76  10  790
1477481998.379:  -1087  76  10  790
1477481998.379:  -2063  76  10  790
1477481998.380:  -2181  76  10  790
1477481998.382:  -3469  76  10  790
1477481998.394:  -3694  76  10  790
1477481998.394:  -4816  76  10  790
1477481998.394:  -4766  76  10  790
1477481998.395:  -5365  76  10  790
1477481998.395:  -4807  76  10  790
1477481998.395:  -5030  76  10  790
1477481998.395:  -3892  76  10  790
1477481998.402:  -3611  76  10  790
1477481998.414:  -2339  76  10  790
1477481998.415:  -1926  76  10  790
1477481998.415:   -540  76  10  790
1477481998.416:   -222  76  10  790
1477481998.417:   1001  76  10  790
1477481998.420:    874  76  10  790
1477481998.433:   1431  76  10  790
1477481998.433:   1049  76  10  790
1477481998.448:   1640  76  10  790
1477481998.448:   1139  76  10  790
1477481998.456:   1589  76  10  790
1477481998.457:    905  76  10  790
1477481998.458:   1194  76  10  790
1477481998.459:    718  76  10  790
1477481998.459:   1237  76  10  790
1477481998.460:    679  76  10  790
1477481998.461:   1184  76  10  790
1477481998.461:    690  76  10  790
1477481998.467:   1175  76  10  790
1477481998.467:    753  76  10  790
1477481998.468:   1198  76  10  790
1477481998.468:    565  76  10  790
1477481998.469:   1060  76  10  790
1477481998.469:    560  76  10  790
1477481998.469:    975  76  10  790
1477481998.470:    465  76  10  790
1477481998.470:    893  76  10  790
1477481998.470:    345  76  10  790
1477481998.470:    953  76  10  790
1477481998.470:    500  76  10  790
1477481998.471:    896  76  10  790
1477481998.471:    360  76  10  790
1477481998.471:    790  76  10  790
1477481998.471:    251  76  10  790
1477481998.471:    852  76  10  790
1477481998.474:    386  76  10  790
1477481998.474:    779  76  10  790
1477481998.474:    258  76  10  790
1477481998.490:    711  76  10  790
1477481998.490:    185  76  10  790
1477481998.490:    781  76  10  790
1477481998.490:    323  76  10  790
1477481998.490:    754  76  10  790
1477481998.490:    274  76  10  790
1477481998.491:    736  76  10  790
1477481998.491:    176  76  10  790
1477481998.491:    718  76  10  790
1477481998.491:    211  76  10  790
1477481998.493:    608  76  10  790
1477481998.495:    112  76  10  790
1477481998.499:    565  76  10  790
1477481998.499:      7  76  10  790
1477481998.502:    564  76  10  791
1477481998.503:     69  76  10  791
1477481998.507:    468  76  10  791
1477481998.507:    -10  76  10  791
1477481998.526:    504  76  10  791
1477481998.527:     43  76  10  791
1477481998.527:    690  76  10  791
1477481998.528:    248  76  10  791
1477481998.529:    658  76  10  791
1477481998.529:    157  76  10  791
1477481998.529:    612  76  10  791
1477481998.530:     53  76  10  791
1477481998.530:    605  76  10  791
1477481998.530:    119  76  10  791
1477481998.530:    547  76  10  791
1477481998.531:     74  76  10  791
1477481998.531:    517  76  10  791
1477481998.536:    -76  76  10  791
1477481998.536:    468  76  10  791
1477481998.537:     34  76  10  791
1477481998.541:    556  76  10  791
1477481998.542:    163  76  10  791
1477481998.558:    634  76  10  791
1477481998.559:      7  76  10  791
1477481998.559:    473  76  10  791
1477481998.559:    -58  76  10  791
1477481998.559:    374  76  10  791
1477481998.559:    -79  76  10  791
1477481998.559:    377  76  10  791
1477481998.560:   -218  76  10  791
1477481998.560:    309  76  10  791
1477481998.562:   -165  76  10  791
1477481998.564:    270  76  10  791
1477481998.565:   -238  76  10  791
1477481998.566:    151  76  10  791
1477481998.575:   -462  76  10  791
1477481998.580:    111  76  10  791
1477481998.580:   -303  76  10  791
1477481998.580:    160  76  10  791
1477481998.581:   -342  76  10  791
1477481998.582:     65  76  10  791
1477481998.583:   -510  76  10  791
1477481998.584:     86  76  10  791
1477481998.586:   -337  76  10  791
1477481998.587:    111  76  10  791
1477481998.591:   -407  76  10  791
1477481998.592:    -27  76  10  791
1477481998.595:   -658  76  10  791
1477481998.595:   -125  76  10  791
1477481998.597:   -575  76  10  791
1477481998.599:    -89  76  10  791
1477481998.600:   -511  76  10  791
1477481998.605:    -33  76  10  791
1477481998.606:   -614  76  10  791
1477481998.607:    -91  76  10  791
1477481998.608:   -591  76  10  791
1477481998.614:   -155  76  10  791
1477481998.614:   -600  76  10  791
1477481998.641:   -122  76  10  791
1477481998.642:   -712  76  10  791
1477481998.643:   -224  76  10  791
1477481998.644:   -746  76  10  791
1477481998.645:   -285  76  10  791
1477481998.648:   -672  76  10  791
1477481998.649:   -152  76  10  791
1477481998.649:   -742  76  10  791
1477481998.650:   -266  76  10  791
1477481998.650:   -771  76  10  791
1477481998.665:   -272  76  10  791
1477481998.665:   -642  76  10  791
1477481998.665:   -133  76  10  791
1477481998.665:   -731  76  10  791
1477481998.666:   -238  76  10  791
1477481998.666:   -739  76  10  791
1477481998.666:   -274  76  10  791
1477481998.666:   -698  76  10  791
1477481998.666:   -206  76  10  791
1477481998.666:   -752  76  10  791
1477481998.666:   -176  76  10  791
1477481998.666:   -622  76  10  791
1477481998.667:   -168  76  10  791
1477481998.667:   -642  76  10  791
1477481998.667:   -182  76  10  791
1477481998.667:   -701  76  10  791
1477481998.669:    -41  76  10  791
1477481998.670:   -398  76  10  791
1477481998.671:     92  76  10  791
1477481998.672:   -392  76  10  791
1477481998.673:     59  76  10  791
1477481998.675:   -444  76  10  791
1477481998.679:    222  76  10  791
1477481998.682:   -180  76  10  791
1477481998.682:    249  76  10  791
1477481998.684:   -237  76  10  791
1477481998.687:    289  76  10  791
1477481998.687:   -142  76  10  791
1477481998.689:    507  76  10  791
1477481998.692:     33  76  10  791
1477481998.696:    453  76  10  791
1477481998.696:     53  76  10  791
1477481998.698:    657  76  10  791
1477481998.699:    193  76  10  791
1477481998.715:    720  76  10  791
1477481998.715:    142  76  10  791
1477481998.715:    536  76  10  791
1477481998.715:    142  76  10  791
1477481998.715:    709  76  10  791
1477481998.716:    171  76  10  791
1477481998.716:    676  76  10  791
1477481998.716:    178  76  10  791
1477481998.716:    697  76  10  791
1477481998.722:    374  76  10  791
1477481998.723:    928  76  10  791
1477481998.723:    338  76  10  791
1477481998.725:    807  76  10  791
1477481998.727:    297  76  10  791
1477481998.738:    766  76  10  791
1477481998.738:    337  76  10  791
1477481998.738:    775  76  10  791
1477481998.738:    129  76  10  791
1477481998.739:    615  76  10  791
1477481998.739:    143  76  10  791
1477481998.741:    652  76  10  791
1477481998.741:    276  76  10  791
1477481998.744:    796  76  10  791
1477481998.746:    234  76  10  791
1477481998.749:    735  76  10  791
1477481998.750:    185  76  10  791
1477481998.765:    591  76  10  791
1477481998.765:    177  76  10  791
1477481998.765:    730  76  10  791
1477481998.766:    212  76  10  791
1477481998.766:    725  76  10  791
1477481998.766:    176  76  10  791
1477481998.766:    599  76  10  791
1477481998.766:    201  76  10  791
1477481998.771:    740  76  10  791
1477481998.771:    181  76  10  791
1477481998.772:    672  76  10  791
1477481998.778:    152  76  10  791
1477481998.779:    621  76  10  791
1477481998.779:    236  76  10  791
1477481998.780:    743  76  10  791
1477481998.785:    149  76  10  791
1477481998.796:    630  76  10  791
1477481998.796:     94  76  10  791
1477481998.796:    499  76  10  791
1477481998.797:      8  76  10  791
1477481998.797:    459  76  10  791
1477481998.797:    -76  76  10  791
1477481998.797:    550  76  10  791
1477481998.798:    146  76  10  791
1477481998.805:    597  76  10  791
1477481998.855:    113  76  10  791
1477481998.863:    581  76  10  791
1477481998.864:     65  76  10  791
1477481998.864:    648  76  10  791
1477481998.864:    122  76  10  791
1477481998.864:    465  76  10  791
1477481998.864:    -40  76  10  791
1477481998.864:    466  76  10  791
1477481998.864:    -44  76  10  791
1477481998.865:    509  76  10  791
1477481998.865:      1  76  10  791
1477481998.865:    443  76  10  791
1477481998.865:     14  76  10  791
1477481998.865:    473  76  10  791
1477481998.865:   -155  76  10  791
1477481998.865:    358  76  10  791
1477481998.866:    -64  76  10  791
1477481998.866:    465  76  10  791
1477481998.866:      7  76  10  791
1477481998.866:    386  76  10  791
1477481998.866:   -228  76  10  791
1477481998.866:    405  76  10  791
1477481998.866:     79  76  10  791
1477481998.867:    580  76  10  791
1477481998.867:     28  76  10  791
1477481998.867:    362  76  10  791
1477481998.867:   -227  76  10  791
1477481998.867:    425  76  10  791
1477481998.867:     57  76  10  791
1477481998.868:    504  76  10  791
1477481998.868:    -45  76  10  791
1477481998.868:    332  76  10  791
1477481998.868:   -245  76  10  791
1477481998.869:    378  76  10  791
1477481998.869:    -17  76  10  791
1477481998.871:    438  76  10  791
1477481998.872:    -73  76  10  791
1477481998.874:    346  76  10  791
1477481998.878:   -186  76  10  791
1477481998.889:    473  76  10  791
1477481998.889:     89  76  10  791
1477481998.889:    523  76  10  791
1477481998.889:    -18  76  10  791
1477481998.889:    392  76  10  791
1477481998.889:   -160  76  10  791
1477481998.893:    418  76  10  791
1477481998.893:    -79  76  10  791
1477481998.893:    304  76  10  791
1477481998.895:   -183  76  10  791
1477481998.896:    323  76  10  791
1477481998.899:   -178  76  10  791
1477481998.914:    402  76  10  791
1477481998.914:    -74  76  10  791
1477481998.914:    382  76  10  791
1477481998.915:    -33  76  10  791
1477481998.915:    468  76  10  791
1477481998.915:   -110  76  10  791
1477481998.916:    406  76  10  791
1477481998.916:    -78  76  10  791
1477481998.919:    398  76  10  791
1477481998.920:    -11  76  10  791
1477481998.922:    485  76  10  791
1477481998.922:    -89  76  10  791
1477481998.924:    418  76  10  791
1477481998.926:   -109  76  10  791
1477481998.938:    297  76  10  791
1477481998.938:   -152  76  10  791
1477481998.938:    367  76  10  791
1477481998.938:   -149  76  10  791
1477481998.938:    419  76  10  791
1477481998.939:    -49  76  10  791
1477481998.941:    443  76  10  791
1477481998.943:     87  76  10  791
1477481998.947:    653  76  10  791
1477481998.947:    114  76  10  791
1477481998.957:    622  76  10  791
1477481998.957:    107  76  10  791
1477481998.957:    564  76  10  791
1477481998.957:    142  76  10  791
1477481998.958:    592  76  10  791
1477481998.961:    -56  76  10  791
1477481998.961:    420  76  10  791
1477481998.964:    -52  76  10  791
1477481998.967:    451  76  10  791
1477481998.969:     29  76  10  791
1477481998.981:    461  76  10  791
1477481998.981:   -158  76  10  791
1477481998.981:    402  76  10  791
1477481998.982:     11  76  10  791
1477481998.982:    524  76  10  791
1477481998.982:     57  76  10  791
1477481998.982:    460  76  10  791
1477481998.982:   -147  76  10  791
1477481998.987:    419  76  10  791
1477481998.995:    -25  76  10  791
1477481999.006:    408  76  10  791
1477481999.007:    -74  76  10  791
1477481999.007:    416  76  10  791
1477481999.007:    -87  76  10  791
1477481999.008:    488  76  10  791
1477481999.008:    -37  76  10  791
1477481999.010:    349  76  10  791
1477481999.010:    -95  76  10  791
1477481999.011:    420  76  10  791
1477481999.011:   -164  76  10  791
1477481999.011:    272  76  10  791
1477481999.011:   -313  76  10  791
1477481999.012:    121  76  10  791
1477481999.013:   -294  76  10  791
1477481999.016:    132  76  10  791
1477481999.017:   -587  76  10  791
1477481999.029:   -150  76  10  791
1477481999.030:   -556  76  10  791
1477481999.030:     82  76  10  791
1477481999.030:   -248  76  10  791
1477481999.030:    176  76  10  791
1477481999.031:   -507  76  10  791
1477481999.031:     14  76  10  791
1477481999.033:   -373  76  10  791
1477481999.034:    167  76  10  791
1477481999.038:   -288  76  10  791
1477481999.039:    108  76  10  791
1477481999.040:   -524  76  10  791
1477481999.042:    -16  76  10  791
1477481999.044:   -531  76  10  791
1477481999.048:   -128  76  10  791
1477481999.048:   -593  76  10  791
1477481999.050:    -62  76  10  791
1477481999.052:   -513  76  10  791
1477481999.073:    146  76  10  791
1477481999.073:   -248  76  10  791
1477481999.073:    258  76  10  791
1477481999.073:   -137  76  10  791
1477481999.073:    392  76  10  791
1477481999.073:   -110  76  10  791
1477481999.074:    520  76  10  791
1477481999.074:    120  76  10  791
1477481999.074:    601  76  10  791
1477481999.076:    133  76  10  791
1477481999.076:    594  76  10  791
1477481999.076:     84  76  10  791
1477481999.077:    739  76  10  791
1477481999.080:    359  76  10  791
1477481999.081:    836  76  10  791
1477481999.082:    363  76  10  791
1477481999.085:    819  76  10  791
1477481999.087:    264  76  10  791
1477481999.097:    813  76  10  791
1477481999.097:    304  76  10  791
1477481999.097:    712  76  10  791
1477481999.098:    271  76  10  791
1477481999.098:    817  76  10  791
1477481999.099:    339  76  10  791
1477481999.101:    914  76  10  791
1477481999.102:    372  76  10  791
1477481999.107:    708  76  10  791
1477481999.107:    179  76  10  791
1477481999.111:    667  76  10  791
1477481999.112:    190  76  10  791
1477481999.116:    823  76  10  791
1477481999.116:    357  76  10  791
1477481999.118:    750  76  10  791
1477481999.119:    266  76  10  791
1477481999.122:    797  76  10  791
1477481999.123:    343  76  10  791
1477481999.124:    951  76  10  791
1477481999.129:    431  76  10  791
1477481999.147:    770  76  10  791
1477481999.148:    241  76  10  791
1477481999.149:    712  76  10  791
1477481999.149:    184  76  10  791
1477481999.150:    745  76  10  791
1477481999.150:    232  76  10  791
1477481999.150:    618  76  10  791
1477481999.151:    124  76  10  791
1477481999.151:    615  76  10  791
1477481999.155:    117  76  10  791
1477481999.156:    698  76  10  791
1477481999.156:    148  76  10  791
1477481999.156:    431  76  10  791
1477481999.159:   -150  76  10  791
1477481999.162:    322  76  10  791
1477481999.162:   -169  76  10  791
1477481999.173:    378  76  10  791
1477481999.173:   -216  76  10  791
1477481999.174:    137  76  10  791
1477481999.174:   -229  76  10  791
1477481999.174:    469  76  10  791
1477481999.174:     73  76  10  791
1477481999.175:    616  76  10  791
1477481999.175:     51  76  10  791
1477481999.175:    461  76  10  791
1477481999.178:     -1  76  10  791
1477481999.180:    302  76  10  791
1477481999.185:   -698  76  10  791
1477481999.185:   -747  76  10  791
1477481999.186:  -1814  76  10  791
1477481999.188:  -1944  76  10  791
1477481999.189:  -3063  76  10  791
1477481999.191:  -3362  76  10  791
1477481999.194:  -4620  76  10  791
1477481999.203:  -4499  76  10  791
1477481999.203:  -5120  76  10  791
1477481999.203:  -4641  76  10  791
1477481999.203:  -4904  76  10  791
1477481999.203:  -3975  76  10  791
1477481999.205:  -3741  76  10  791
1477481999.208:  -2198  76  10  791
1477481999.212:  -1734  76  10  791
1477481999.212:   -514  76  10  791
1477481999.214:   -270  76  10  791
1477481999.215:    915  76  10  791
1477481999.217:    990  76  10  791
1477481999.219:   1896  76  10  791
1477481999.221:   1422  76  10  791
1477481999.232:   1672  76  10  791
1477481999.233:   1070  76  10  791
1477481999.233:   1519  76  10  791
1477481999.234:    936  76  10  791
1477481999.236:   1354  76  10  791
1477481999.237:    702  76  10  791
1477481999.238:   1090  76  10  791
1477481999.240:    769  76  10  791
1477481999.240:   1447  76  10  791
1477481999.241:    984  76  10  791
1477481999.247:   1481  76  10  791
1477481999.247:    910  76  10  791
1477481999.247:   1310  76  10  791
1477481999.249:    835  76  10  791
1477481999.254:   1224  76  10  791
1477481999.254:    515  76  10  791
1477481999.255:    959  76  10  791
1477481999.256:    492  76  10  791
1477481999.270:   1015  76  10  791
1477481999.270:    599  76  10  791
1477481999.270:   1025  76  10  791
1477481999.270:    399  76  10  791
1477481999.270:    939  76  10  791
1477481999.271:    489  76  10  791
1477481999.272:    916  76  10  791
1477481999.272:    381  76  10  791
1477481999.274:    786  76  10  791
1477481999.277:    244  76  10  791
1477481999.278:    877  76  10  791
1477481999.280:    459  76  10  791
1477481999.281:    899  76  10  791
1477481999.284:    429  76  10  791
1477481999.299:    930  76  10  791
1477481999.299:    397  76  10  791
1477481999.299:    890  76  10  791
1477481999.300:    272  76  10  791
1477481999.300:    606  76  10  791
1477481999.300:    170  76  10  791
1477481999.300:    750  76  10  791
1477481999.300:    238  76  10  791
1477481999.301:    711  76  10  791
1477481999.304:    123  76  10  791
1477481999.305:    574  76  10  791
1477481999.308:    263  76  10  791
1477481999.309:    873  75  10  791
1477481999.313:    315  75  10  791
1477481999.314:    762  75  10  791
1477481999.315:    203  75  10  791
1477481999.316:    662  75  10  791
1477481999.319:    280  75  10  791
1477481999.331:    782  75  10  791
1477481999.331:    168  75  10  791
1477481999.332:    636  75  10  791
1477481999.332:    112  75  10  791
1477481999.332:    572  75  10  791
1477481999.332:    169  75  10  791
1477481999.332:    690  75  10  791
1477481999.335:    138  75  10  791
1477481999.336:    659  75  10  791
1477481999.341:    143  75  10  791
1477481999.352:    567  75  10  791
1477481999.352:    113  75  10  791
1477481999.352:    582  75  10  791
1477481999.352:     -9  75  10  791
1477481999.352:    509  75  10  791
1477481999.353:     23  75  10  791
1477481999.353:    479  75  10  791
1477481999.354:     42  75  10  791
1477481999.358:    539  75  10  791
1477481999.359:     32  75  10  791
1477481999.361:    652  75  10  791
1477481999.362:    187  75  10  791
1477481999.364:    549  75  10  791
1477481999.366:    -31  75  10  791
1477481999.368:    373  75  10  791
1477481999.372:   -164  75  10  791
1477481999.373:    429  75  10  791
1477481999.374:    -78  75  10  791
1477481999.390:    271  75  10  791
1477481999.390:   -247  75  10  791
1477481999.390:    257  75  10  791
1477481999.391:   -235  75  10  791
1477481999.391:    329  75  10  791
1477481999.391:   -202  75  10  791
1477481999.391:    180  75  10  791
1477481999.391:   -302  75  10  791
1477481999.394:    145  75  10  791
1477481999.394:   -477  75  10  791
1477481999.395:     11  75  10  791
1477481999.399:   -455  75  10  791
1477481999.400:     71  75  10  791
1477481999.402:   -337  75  10  791
1477481999.412:     70  75  10  791
1477481999.413:   -613  75  10  791
1477481999.413:   -115  75  10  791
1477481999.413:   -523  75  10  791
1477481999.413:     24  75  10  791
1477481999.414:   -415  75  10  791
1477481999.418:    -26  75  10  791
1477481999.419:   -659  75  10  791
1477481999.454:    -83  75  10  791
1477481999.455:   -481  75  10  791
1477481999.456:    -21  75  10  791
1477481999.459:   -565  75  10  791
1477481999.470:   -229  75  10  791
1477481999.470:   -869  75  10  791
1477481999.470:   -299  75  10  791
1477481999.470:   -709  75  10  791
1477481999.471:   -223  75  10  791
1477481999.471:   -678  75  10  791
1477481999.471:   -215  75  10  791
1477481999.471:   -752  75  10  791
1477481999.471:   -140  75  10  791
1477481999.471:   -543  75  10  791
1477481999.471:    -50  75  10  791
1477481999.472:   -499  75  10  791
1477481999.472:    -50  75  10  791
1477481999.472:   -630  75  10  791
1477481999.472:    -68  75  10  791
1477481999.472:   -502  75  10  791
1477481999.473:    -11  75  10  791
1477481999.473:   -438  75  10  791
1477481999.473:     38  75  10  791
1477481999.473:   -517  75  10  791
1477481999.473:     63  75  10  791
1477481999.473:   -367  75  10  791
1477481999.474:    112  75  10  791
1477481999.474:   -329  75  10  791
1477481999.474:    158  75  10  791
1477481999.477:   -358  75  10  791
1477481999.478:    263  75  10  791
1477481999.482:   -163  75  10  791
1477481999.482:    273  75  10  791
1477481999.484:   -221  75  10  791
1477481999.486:    242  75  10  791
1477481999.491:   -268  75  10  791
1477481999.500:    364  75  10  791
1477481999.500:    -45  75  10  791
1477481999.500:    437  75  10  791
1477481999.500:     13  75  10  791
1477481999.500:    528  75  10  791
1477481999.500:     13  75  10  791
1477481999.505:    606  75  10  791
1477481999.506:    179  75  10  791
1477481999.507:    684  75  10  791
1477481999.510:    271  75  10  791
1477481999.510:    726  75  10  791
1477481999.511:    112  75  10  791
1477481999.514:    652  75  10  791
1477481999.519:    261  75  10  791
1477481999.529:    847  75  10  791
1477481999.529:    488  75  10  791
1477481999.530:    947  75  10  791
1477481999.530:    310  75  10  791
1477481999.530:    822  75  10  791
1477481999.530:    382  75  10  791
1477481999.532:    890  75  10  791
1477481999.532:    460  75  10  791
1477481999.534:    901  75  10  791
1477481999.535:    279  75  10  791
1477481999.536:    778  75  10  791
1477481999.539:    278  75  10  791
1477481999.541:    725  75  10  791
1477481999.546:    300  75  10  791
1477481999.546:    808  75  10  791
1477481999.548:    254  75  10  791
1477481999.551:    772  75  10  791
1477481999.551:    264  75  10  791
1477481999.552:    724  75  10  791
1477481999.555:    330  75  10  791
1477481999.569:    856  75  10  791
1477481999.570:    313  75  10  791
1477481999.570:    864  75  10  791
1477481999.571:    401  75  10  791
1477481999.571:    872  75  10  791
1477481999.572:    428  75  10  791
1477481999.572:    886  75  10  791
1477481999.573:    309  75  10  791
1477481999.573:    876  75  10  791
1477481999.574:    428  75  10  791
1477481999.576:    874  75  10  791
1477481999.578:    386  75  10  791
1477481999.587:    812  75  10  791
1477481999.587:    215  75  10  791
1477481999.587:    741  75  10  791
1477481999.587:    248  75  10  791
1477481999.588:    686  75  10  791
1477481999.592:    242  75  10  791
1477481999.593:    723  75  10  791
1477481999.596:    146  75  10  791
1477481999.596:    661  75  10  791
1477481999.598:    170  75  10  791
1477481999.600:    651  75  10  791
1477481999.601:    263  75  10  791
1477481999.606:    777  75  10  791
1477481999.606:    205  75  10  791
1477481999.608:    710  75  10  791
1477481999.679:    195  75  10  791
1477481999.683:    633  75  10  791
1477481999.683:    199  75  10  791
1477481999.683:    686  75  10  791
1477481999.684:    128  75  10  791
1477481999.684:    674  75  10  791
1477481999.684:    168  75  10  791
1477481999.684:    537  75  10  791
1477481999.685:    -14  75  10  791
1477481999.685:    396  75  10  791
1477481999.685:   -140  75  10  791
1477481999.685:    497  75  10  791
1477481999.687:     62  75  10  791
1477481999.687:    438  75  10  791
1477481999.690:   -131  75  10  791
1477481999.690:    307  75  10  791
1477481999.690:   -177  75  10  791
1477481999.691:    467  75  10  791
1477481999.691:     -4  75  10  791
1477481999.691:    356  75  10  791
1477481999.691:   -181  75  10  791
1477481999.691:    273  75  10  791
1477481999.693:   -266  75  10  791
1477481999.693:    302  75  10  791
1477481999.693:   -155  75  10  791
1477481999.693:    329  75  10  791
1477481999.693:    -87  75  10  791
1477481999.693:    374  75  10  791
1477481999.694:   -237  75  10  791
1477481999.694:    284  75  10  791
1477481999.694:   -188  75  10  791
1477481999.694:    247  75  10  791
1477481999.694:   -257  75  10  791
1477481999.694:    176  75  10  791
1477481999.694:   -338  75  10  791
1477481999.695:    339  75  10  791
1477481999.695:    -35  75  10  791
1477481999.695:    420  75  10  791
1477481999.695:    -71  75  10  791
1477481999.695:    384  75  10  791
1477481999.695:   -170  75  10  791
1477481999.696:    345  75  10  791
1477481999.696:   -230  75  10  791
1477481999.696:    118  75  10  791
1477481999.696:   -358  75  10  791
1477481999.698:    149  75  10  791
1477481999.700:   -402  75  10  791
1477481999.711:    102  75  10  791
1477481999.711:   -420  75  10  791
1477481999.711:     61  75  10  791
1477481999.712:   -283  75  10  791
1477481999.712:    280  75  10  791
1477481999.716:   -289  75  10  791
1477481999.716:    176  75  10  791
1477481999.716:   -374  75  10  791
1477481999.717:     78  75  10  791
1477481999.719:   -306  75  10  791
1477481999.727:    212  75  10  791
1477481999.728:   -389  75  10  791
1477481999.728:     74  75  10  791
1477481999.730:   -458  75  10  791
1477481999.730:     15  75  10  791
1477481999.731:   -361  75  10  791
1477481999.732:    161  75  10  791
1477481999.735:   -425  75  10  791
1477481999.745:     75  75  10  791
1477481999.745:   -415  75  10  791
1477481999.745:     52  75  10  791
1477481999.745:   -406  75  10  791
1477481999.745:     -7  75  10  791
1477481999.746:   -678  75  10  791
1477481999.750:   -203  75  10  791
1477481999.751:   -689  75  10  791
1477481999.756:   -225  75  10  791
1477481999.756:   -679  75  10  791
1477481999.765:   -232  75  10  791
1477481999.765:   -816  75  10  791
1477481999.765:   -281  75  10  791
1477481999.765:   -779  75  10  791
1477481999.766:   -364  75  10  791
1477481999.769:   -824  75  10  791
1477481999.770:   -332  75  10  791
1477481999.771:   -895  75  10  791
1477481999.773:   -417  75  10  791
1477481999.774:  -1040  75  10  791
1477481999.777:   -742  75  10  791
1477481999.779:  -1270  75  10  791
1477481999.783:   -828  75  10  791
1477481999.784:  -1471  75  10  791
1477481999.785:  -1088  75  10  791
1477481999.786:  -1748  75  10  791
1477481999.795:  -1395  75  10  791
1477481999.795:  -1814  75  10  791
1477481999.796:  -1250  75  10  791
1477481999.797:  -1755  75  10  791
1477481999.799:  -1182  75  10  791
1477481999.799:  -1605  75  10  791
1477481999.800:  -1040  75  10  791
1477481999.802:  -1357  75  10  791
1477481999.815:   -791  75  10  791
1477481999.815:  -1298  75  10  791
1477481999.815:   -683  75  10  791
1477481999.816:  -1066  75  10  791
1477481999.816:   -535  75  10  791
1477481999.817:   -948  75  10  791
1477481999.817:   -460  75  10  791
1477481999.818:   -962  75  10  791
1477481999.821:   -297  75  10  791
1477481999.825:   -672  75  10  791
1477481999.825:   -211  75  10  791
1477481999.827:   -702  75  10  791
1477481999.828:   -226  75  10  791
1477481999.829:   -698  75  10  791
1477481999.832:    -22  75  10  791
1477481999.834:   -429  75  10  791
1477481999.835:      5  75  10  791
1477481999.838:   -461  75  10  791
1477481999.850:     63  75  10  791
1477481999.850:   -410  75  10  791
1477481999.851:    193  75  10  791
1477481999.851:   -302  75  10  791
1477481999.851:     90  75  10  791
1477481999.852:   -387  75  10  791
1477481999.853:    104  75  10  791
1477481999.853:   -430  75  10  791
1477481999.857:    129  75  10  791
1477481999.858:   -340  75  10  791
1477481999.867:    143  75  10  791
1477481999.867:   -238  75  10  791
1477481999.868:    303  75  10  791
1477481999.869:   -226  75  10  791
1477481999.870:    328  75  10  791
1477481999.870:   -131  75  10  791
1477481999.871:    378  75  10  791
1477481999.874:     37  75  10  791
1477481999.876:    625  75  10  791
1477481999.877:    139  75  10  791
1477481999.879:    736  75  10  791
1477481999.882:    337  75  10  791
1477481999.886:    918  75  10  791
1477481999.887:    620  75  10  791
1477481999.887:   1181  75  10  791
1477481999.888:    605  75  10  791
1477481999.891:   1110  75  10  791
1477481999.893:    669  75  10  791
1477481999.894:   1254  75  10  791
1477481999.924:    945  75  10  791
1477481999.929:   1459  75  10  791
1477481999.930:    839  75  10  791
1477481999.931:   1328  75  10  791
1477481999.934:    864  75  10  791
1477481999.935:   1360  75  10  791
1477481999.936:    906  75  10  791
1477481999.937:   1304  75  10  791
1477481999.937:    679  75  10  791
1477481999.953:   1239  75  10  791
1477481999.953:    811  75  10  791
1477481999.954:   1271  75  10  791
1477481999.954:    793  75  10  791
1477481999.955:   1270  75  10  791
1477481999.955:    777  75  10  791
1477481999.956:   1411  75  10  791
1477481999.956:    952  75  10  791
1477481999.956:   1358  75  10  791
1477481999.956:    895  75  10  791
1477481999.956:   1418  75  10  791
1477481999.957:    886  75  10  791
1477481999.957:   1374  75  10  791
1477481999.958:    797  75  10  791
1477481999.958:   1231  75  10  791
1477481999.959:    893  75  10  791
1477481999.959:   1471  75  10  791
1477481999.960:    858  75  10  791
1477481999.960:   1244  75  10  791
1477481999.960:    689  75  10  791
1477481999.960:   1254  75  10  791
1477481999.961:   1007  75  10  791
1477481999.961:   1568  75  10  791
1477481999.962:    913  75  10  791
1477481999.962:   1321  75  10  791
1477481999.963:    804  75  10  791
1477481999.969:   1311  75  10  791
1477481999.970:    892  75  10  791
1477481999.973:   1298  75  10  791
1477481999.974:    631  75  10  791
1477481999.990:   1136  75  10  791
1477481999.990:    681  75  10  791
1477481999.990:   1135  75  10  791
1477481999.990:    639  75  10  791
1477481999.990:   1078  75  10  791
1477481999.990:    565  75  10  791
1477481999.991:   1222  75  10  791
1477481999.991:    807  75  10  791
1477481999.991:   1199  75  10  791
1477481999.991:    635  75  10  791
1477481999.993:   1041  75  10  791
1477481999.995:    453  75  10  791
1477481999.998:    884  75  10  791
1477481999.999:    100  75  10  791
1477482000.001:     81  75  10  791
1477482000.004:   -882  75  10  791
1477482000.007:   -924  75  10  791
1477482000.007:  -2078  75  10  791
1477482000.011:  -2247  75  10  791
1477482000.011:  -3466  75  10  791
1477482000.012:  -3601  75  10  791
1477482000.015:  -4375  75  10  791
1477482000.032:  -4012  75  10  791
1477482000.033:  -4523  75  10  791
1477482000.033:  -3714  75  10  791
1477482000.033:  -3635  75  10  791
1477482000.033:  -2370  75  10  791
1477482000.033:  -1921  75  10  791
1477482000.033:   -643  75  10  791
1477482000.035:   -508  75  10  791
1477482000.036:    739  75  10  791
1477482000.036:    976  75  10  791
