timestamp: ADC HeartRate4sAverage HeartRate30sAverage HRV8sAverage
1477476145.891:    182  72   9  835
1477476145.891:    166  72   9  835
1477476145.892:    160  72   9  835
1477476145.892:    154  72   9  835
1477476145.892:    144  72   9  835
1477476145.892:    135  72   9  835
1477476145.892:    138  72   9  835
1477476145.893:    163  72   9  835
1477476145.893:    206  72   9  835
1477476145.893:    254  72   9  835
1477476145.893:    297  72   9  835
1477476145.893:    331  72   9  835
1477476145.893:    357  72   9  835
1477476145.894:    378  72   9  835
1477476145.894:    385  72   9  835
1477476145.894:    370  72   9  835
1477476145.894:    341  72   9  835
1477476145.894:    317  72   9  835
1477476145.894:    324  72   9  835
1477476145.894:    374  72   9  835
1477476145.895:    452  72   9  835
1477476145.895:    530  72   9  835
1477476145.895:    601  72   9  835
1477476145.895:    679  72   9  835
1477476145.895:    782  72   9  835
1477476145.895:    898  72   9  835
1477476145.896:   1003  72   9  835
1477476145.896:   1096  72   9  835
1477476145.896:   1226  72   9  835
1477476145.896:   1443  72   9  835
1477476145.907:   1736  72   9  835
1477476145.907:   2038  72   9  835
1477476145.907:   2298  72   9  835
1477476145.907:   2550  72   9  835
1477476145.908:   2859  72   9  835
1477476145.908:   3203  72   9  835
1477476145.908:   3444  72   9  835
1477476145.908:   3452  72   9  835
1477476145.908:   3245  72   9  835
1477476145.909:   2949  72   9  835
1477476145.909:   2599  72   9  835
1477476145.909:   2033  72   9  835
1477476145.911:   1033  72   9  835
1477476145.913:   -413  72   9  835
1477476145.914:  -2037  72   9  835
1477476145.915:  -3497  72   9  835
1477476145.916:  -4650  72   9  835
1477476145.917:  -5599  72   9  835
1477476145.919:  -6463  72   9  835
1477476145.922:  -7181  72   9  835
1477476145.926:  -7553  72   9  835
1477476145.928:  -7457  72   9  835
1477476145.946:  -6983  72   9  835
1477476145.947:  -6350  72   9  835
1477476145.947:  -5720  72   9  835
1477476145.947:  -5132  72   9  835
1477476145.947:  -4583  72   9  835
1477476145.948:  -4107  72   9  835
1477476145.948:  -3753  72   9  835
1477476145.948:  -3507  72   9  835
1477476145.948:  -3278  72   9  835
1477476145.948:  -2982  72   9  835
1477476145.948:  -2620  72   9  835
1477476145.949:  -2244  72   9  835
1477476145.951:  -1877  72   9  835
1477476145.953:  -1480  72   9  835
1477476145.954:  -1005  72   9  835
1477476145.958:   -461  72   9  835
1477476145.959:     78  72   9  835
1477476145.960:    534  72   9  835
1477476145.963:    857  72   9  835
1477476145.964:   1031  72   9  835
1477476145.966:   1072  72   9  835
1477476145.967:   1028  72   9  835
1477476145.972:    966  72   9  835
1477476145.972:    939  72   9  835
1477476145.990:    957  72   9  835
1477476145.990:    989  72   9  835
1477476145.990:   1011  72   9  835
1477476145.991:   1027  72   9  835
1477476145.991:   1060  72   9  835
1477476145.991:   1123  72   9  835
1477476145.991:   1206  72   9  835
1477476145.991:   1296  72   9  835
1477476145.992:   1385  72   9  835
1477476145.992:   1460  72   9  835
1477476145.994:   1506  72   9  835
1477476145.995:   1525  72   9  835
1477476146.000:   1543  72   9  835
1477476146.000:   1584  72   9  835
1477476146.001:   1645  72   9  835
1477476146.003:   1690  72   9  835
1477476146.005:   1689  72   9  835
1477476146.007:   1648  72   9  835
1477476146.018:   1595  72   9  835
1477476146.018:   1547  72   9  835
1477476146.018:   1500  72   9  835
1477476146.019:   1444  72   9  835
1477476146.019:   1386  72   9  835
1477476146.019:   1350  72   9  835
1477476146.021:   1355  72   9  829
1477476146.022:   1397  72   9  829
1477476146.027:   1448  72   9  829
1477476146.028:   1483  72   9  829
1477476146.039:   1492  72   9  829
1477476146.040:   1490  72   9  829
1477476146.040:   1489  72   9  829
1477476146.040:   1495  72   9  829
1477476146.041:   1508  72   9  829
1477476146.041:   1529  72   9  829
1477476146.041:   1562  72   9  829
1477476146.045:   1602  72   9  829
1477476146.045:   1632  72   9  829
1477476146.047:   1629  72   9  829
1477476146.049:   1589  72   9  829
1477476146.052:   1534  72   9  829
1477476146.055:   1492  72   9  829
1477476146.056:   1467  72   9  829
1477476146.070:   1449  72   9  829
1477476146.071:   1432  72   9  829
1477476146.071:   1426  72   9  829
1477476146.071:   1446  72   9  829
1477476146.071:   1485  72   9  829
1477476146.072:   1516  72   9  829
1477476146.072:   1516  72   9  829
1477476146.072:   1485  72   9  829
1477476146.072:   1439  72   9  829
1477476146.075:   1400  72   9  829
1477476146.076:   1380  72   9  829
1477476146.079:   1378  72   9  829
1477476146.082:   1391  72   9  829
1477476146.082:   1420  72   9  829
1477476146.088:   1468  72   9  829
1477476146.088:   1528  72   9  829
1477476146.090:   1593  72   9  829
1477476146.091:   1652  72   9  829
1477476146.105:   1706  72   9  829
1477476146.106:   1756  72   9  829
1477476146.106:   1807  72   9  829
1477476146.106:   1859  72   9  829
1477476146.107:   1915  72   9  829
1477476146.107:   1974  72   9  829
1477476146.107:   2030  72   9  829
1477476146.107:   2074  72   9  829
1477476146.108:   2107  72   9  829
1477476146.109:   2147  72   9  829
1477476146.113:   2207  72   9  829
1477476146.113:   2274  72   9  829
1477476146.123:   2309  72   9  829
1477476146.123:   2299  72   9  829
1477476146.124:   2275  72   9  829
1477476146.124:   2282  72   9  829
1477476146.124:   2325  72   9  829
1477476146.126:   2366  72   9  829
1477476146.128:   2364  72   9  829
1477476146.129:   2323  72   9  829
1477476146.132:   2282  72   9  829
1477476146.137:   2268  72   9  829
1477476146.142:   2279  72   9  829
1477476146.142:   2293  72   9  829
1477476146.143:   2300  72   9  829
1477476146.143:   2303  72   9  829
1477476146.143:   2306  72   9  829
1477476146.145:   2308  72   9  829
1477476146.146:   2308  72   9  829
1477476146.149:   2307  72   9  829
1477476146.159:   2302  72   9  829
1477476146.159:   2287  72   9  829
1477476146.159:   2255  72   9  829
1477476146.159:   2210  72   9  829
1477476146.160:   2169  72   9  829
1477476146.161:   2141  72   9  829
1477476146.165:   2124  72   9  829
1477476146.166:   2094  72   9  829
1477476146.168:   2032  72   9  829
1477476146.169:   1931  72   9  829
1477476146.170:   1807  72   9  829
1477476146.172:   1679  72   9  829
1477476146.178:   1558  72   9  829
1477476146.179:   1442  72   9  829
1477476146.202:   1329  72   9  829
1477476146.202:   1224  72   9  829
1477476146.202:   1134  72   9  829
1477476146.202:   1056  72   9  829
1477476146.202:    986  72   9  829
1477476146.202:    919  72   9  829
1477476146.203:    852  72   9  829
1477476146.203:    779  72   9  829
1477476146.203:    695  72   9  829
1477476146.203:    596  72   9  829
1477476146.203:    496  72   9  829
1477476146.204:    414  72   9  829
1477476146.204:    358  72   9  829
1477476146.204:    321  72   9  829
1477476146.206:    281  72   9  829
1477476146.210:    221  72   9  829
1477476146.211:    141  72   9  829
1477476146.212:     52  72   9  829
1477476146.216:    -28  72   9  829
1477476146.216:    -89  72   9  829
1477476146.227:   -129  72   9  829
1477476146.227:   -162  72   9  829
1477476146.227:   -204  72   9  829
1477476146.227:   -261  72   9  829
1477476146.227:   -324  72   9  829
1477476146.227:   -379  72   9  829
1477476146.233:   -420  72   9  829
1477476146.233:   -454  72   9  829
1477476146.237:   -491  72   9  829
1477476146.237:   -533  72   9  829
1477476146.247:   -567  72   9  829
1477476146.247:   -581  72   9  829
1477476146.247:   -574  72   9  829
1477476146.247:   -561  72   9  829
1477476146.247:   -561  72   9  829
1477476146.248:   -586  72   9  829
1477476146.253:   -630  72   9  829
1477476146.254:   -684  72   9  829
1477476146.254:   -742  72   9  829
1477476146.257:   -803  72   9  829
1477476146.258:   -859  72   9  829
1477476146.260:   -898  72   9  829
1477476146.261:   -905  72   9  829
1477476146.265:   -880  72   9  829
1477476146.266:   -836  72   9  829
1477476146.267:   -794  72   9  829
1477476146.270:   -767  72   9  829
1477476146.274:   -750  72   9  829
1477476146.292:   -732  72   9  829
1477476146.292:   -706  72   9  829
1477476146.293:   -680  72   9  829
1477476146.293:   -665  72   9  829
1477476146.293:   -656  72   9  829
1477476146.293:   -633  72   9  829
1477476146.294:   -579  72   9  829
1477476146.294:   -505  72   9  829
1477476146.294:   -447  72   9  829
1477476146.294:   -427  72   9  829
1477476146.295:   -432  72   9  829
1477476146.295:   -423  72   9  829
1477476146.297:   -371  72   9  829
1477476146.303:   -288  72   9  829
1477476146.312:   -212  72   9  829
1477476146.312:   -166  72   9  829
1477476146.313:   -139  72   9  829
1477476146.313:   -107  72   9  829
1477476146.313:    -61  72   9  829
1477476146.313:    -28  72   9  829
1477476146.315:    -42  72   9  829
1477476146.317:   -106  72   9  829
1477476146.318:   -182  72   9  829
1477476146.318:   -223  72   9  829
1477476146.319:   -212  72   9  829
1477476146.323:   -177  72   9  829
1477476146.378:   -154  72   9  829
1477476146.378:   -149  72   9  829
1477476146.378:   -126  72   9  829
1477476146.378:    -54  72   9  829
1477476146.378:     58  72   9  829
1477476146.379:    162  72   9  829
1477476146.379:    219  72   9  829
1477476146.379:    231  72   9  829
1477476146.379:    246  72   9  829
1477476146.379:    304  72   9  829
1477476146.379:    393  72   9  829
1477476146.379:    462  72   9  829
1477476146.380:    460  72   9  829
1477476146.380:    393  72   9  829
1477476146.380:    316  72   9  829
1477476146.380:    285  72   9  829
1477476146.380:    308  72   9  829
1477476146.380:    344  72   9  829
1477476146.380:    348  72   9  829
1477476146.381:    326  72   9  829
1477476146.381:    321  72   9  829
1477476146.381:    374  72   9  829
1477476146.381:    467  72   9  829
1477476146.381:    540  72   9  829
1477476146.381:    550  72   9  829
1477476146.381:    514  72   9  829
1477476146.382:    486  72   9  829
1477476146.382:    496  72   9  829
1477476146.382:    519  72   9  829
1477476146.384:    511  72   9  829
1477476146.384:    459  72   9  829
1477476146.390:    407  72   9  829
1477476146.391:    399  72   9  829
1477476146.391:    428  72   9  829
1477476146.391:    444  72   9  829
1477476146.393:    409  72   9  829
1477476146.397:    341  72   9  829
1477476146.399:    296  72   9  829
1477476146.411:    308  72   9  829
1477476146.411:    356  72   9  829
1477476146.412:    395  72   9  829
1477476146.412:    396  72   9  829
1477476146.412:    373  72   9  829
1477476146.412:    360  72   9  829
1477476146.412:    370  72   9  829
1477476146.417:    388  72   9  829
1477476146.418:    392  72   9  829
1477476146.419:    387  72   9  829
1477476146.420:    403  72   9  829
1477476146.423:    457  72   9  829
1477476146.425:    527  72   9  829
1477476146.425:    568  72   9  829
1477476146.427:    560  72   9  829
1477476146.428:    539  72   9  829
1477476146.444:    553  72   9  829
1477476146.444:    603  72   9  829
1477476146.444:    639  72   9  829
1477476146.444:    623  72   9  829
1477476146.444:    588  72   9  829
1477476146.466:    602  72   9  829
1477476146.468:    687  72   9  829
1477476146.468:    785  72   9  829
1477476146.471:    825  72   9  829
1477476146.472:    810  72   9  829
1477476146.473:    800  72   9  829
1477476146.473:    823  72   9  829
1477476146.474:    837  72   9  829
1477476146.475:    795  72   9  829
1477476146.486:    719  72   9  829
1477476146.487:    683  72   9  829
1477476146.487:    720  72   9  829
1477476146.487:    774  72   9  829
1477476146.487:    772  72   9  829
1477476146.487:    721  72   9  829
1477476146.488:    696  72   9  829
1477476146.488:    735  72   9  829
1477476146.488:    790  72   9  829
1477476146.488:    786  72   9  829
1477476146.488:    724  72   9  829
1477476146.489:    677  72   9  829
1477476146.489:    697  72   9  829
1477476146.489:    755  72   9  829
1477476146.489:    779  72   9  829
1477476146.490:    746  72   9  829
1477476146.510:    694  72   9  829
1477476146.514:    669  72   9  829
1477476146.525:    667  72   9  829
1477476146.526:    661  72   9  829
1477476146.526:    642  72   9  829
1477476146.527:    631  72   9  829
1477476146.527:    637  72   9  829
1477476146.528:    652  72   9  829
1477476146.528:    668  72   9  829
1477476146.529:    692  72   9  829
1477476146.529:    733  72   9  829
1477476146.529:    774  72   9  829
1477476146.530:    789  72   9  829
1477476146.531:    776  72   9  829
1477476146.531:    760  72   9  829
1477476146.531:    758  72   9  829
1477476146.532:    757  72   9  829
1477476146.532:    733  72   9  829
1477476146.533:    689  72   9  829
1477476146.533:    654  72   9  829
1477476146.534:    645  72   9  829
1477476146.535:    650  72   9  829
1477476146.547:    647  72   9  829
1477476146.548:    637  72   9  829
1477476146.548:    633  72   9  829
1477476146.549:    644  72   9  829
1477476146.550:    666  72   9  829
1477476146.552:    697  72   9  829
1477476146.553:    738  72   9  829
1477476146.553:    776  72   9  829
1477476146.554:    785  72   9  829
1477476146.555:    757  72   9  829
1477476146.556:    718  72   9  829
1477476146.556:    708  72   9  829
1477476146.557:    730  72   9  829
1477476146.558:    755  72   9  829
1477476146.572:    765  72   9  829
1477476146.573:    783  72   9  829
1477476146.574:    843  72   9  829
1477476146.575:    928  72   9  829
1477476146.598:    980  72   9  829
1477476146.599:    968  72   9  829
1477476146.600:    923  72   9  829
1477476146.601:    899  72   9  829
1477476146.602:    899  72   9  829
1477476146.603:    878  72   9  829
1477476146.604:    817  72   9  829
1477476146.604:    761  72   9  829
1477476146.608:    765  72   9  829
1477476146.609:    822  72   9  829
1477476146.609:    867  72   9  829
1477476146.611:    859  72   9  829
1477476146.623:    830  72   9  829
1477476146.624:    837  72   9  829
1477476146.625:    883  72   9  829
1477476146.625:    914  72   9  829
1477476146.626:    899  72   9  829
1477476146.626:    879  72   9  829
1477476146.627:    917  72   9  829
1477476146.628:   1012  72   9  829
1477476146.628:   1087  72   9  829
1477476146.629:   1078  72   9  829
1477476146.643:   1001  72   9  829
1477476146.644:    937  72   9  829
1477476146.646:    932  72   9  829
1477476146.647:    956  72   9  829
1477476146.647:    946  72   9  829
1477476146.649:    889  72   9  829
1477476146.661:    826  72   9  829
1477476146.662:    808  72   9  829
1477476146.663:    831  72   9  829
1477476146.663:    855  72   9  829
1477476146.664:    852  72   9  829
1477476146.665:    830  72   9  829
1477476146.665:    810  72   9  829
1477476146.666:    792  72   9  829
1477476146.666:    759  72   9  829
1477476146.667:    710  72   9  829
1477476146.668:    677  72   9  829
1477476146.668:    685  72   9  829
1477476146.669:    708  72   9  829
1477476146.670:    690  72   9  829
1477476146.682:    604  72   9  829
1477476146.682:    492  72   9  829
1477476146.683:    422  72   9  829
1477476146.684:    424  72   9  829
1477476146.684:    461  72   9  829
1477476146.685:    484  72   9  829
1477476146.687:    486  72   9  829
1477476146.688:    498  72   9  829
1477476146.688:    545  72   9  829
1477476146.689:    610  72   9  829
1477476146.690:    660  72   9  829
1477476146.690:    676  72   9  829
1477476146.702:    671  72   9  829
1477476146.702:    659  72   9  829
1477476146.702:    645  72   9  829
1477476146.703:    632  72   9  829
1477476146.703:    630  72   9  829
1477476146.703:    644  72   9  829
1477476146.703:    654  72   9  829
1477476146.703:    638  72   9  829
1477476146.703:    617  72   9  829
1477476146.703:    642  72   9  829
1477476146.703:    742  72   9  829
1477476146.705:    901  72   9  829
1477476146.705:   1071  72   9  829
1477476146.706:   1226  72   9  829
1477476146.706:   1378  72   9  829
1477476146.707:   1547  72   9  829
1477476146.707:   1727  72   9  829
1477476146.716:   1902  72   9  829
1477476146.724:   2068  72   9  829
1477476146.725:   2227  72   9  829
1477476146.726:   2378  72   9  829
1477476146.726:   2528  72   9  829
1477476146.728:   2708  72   9  829
1477476146.728:   2939  72   9  829
1477476146.729:   3172  72   9  829
1477476146.729:   3292  72   9  829
1477476146.730:   3220  72   9  829
1477476146.731:   3002  72   9  829
1477476146.731:   2751  72   9  829
1477476146.732:   2473  72   9  829
1477476146.733:   1992  72   9  829
1477476146.736:   1089  72   9  829
1477476146.736:   -259  72   9  829
1477476146.738:  -1804  72   9  829
1477476146.740:  -3216  72   9  829
1477476146.742:  -4325  72   9  829
1477476146.758:  -5185  72   9  829
1477476146.759:  -5921  72   9  829
1477476146.759:  -6552  72   9  829
1477476146.760:  -6963  72   9  829
1477476146.761:  -7024  72   9  829
1477476146.761:  -6704  72   9  829
1477476146.762:  -6103  72   9  829
1477476146.762:  -5398  72   9  829
1477476146.763:  -4763  72   9  829
1477476146.764:  -4300  72   9  829
1477476146.767:  -3996  72   9  829
1477476146.767:  -3744  72   9  829
1477476146.768:  -3433  72   9  829
1477476146.774:  -3030  72   9  829
1477476146.775:  -2588  72   9  829
1477476146.776:  -2173  72   9  829
1477476146.776:  -1788  72   9  829
1477476146.777:  -1374  72   9  829
1477476146.780:   -880  72   9  829
1477476146.783:   -317  72   9  829
1477476146.800:    252  72   9  829
1477476146.801:    752  72   9  829
1477476146.802:   1123  72   9  829
1477476146.802:   1334  72   9  829
1477476146.803:   1389  72   9  829
1477476146.804:   1333  72   9  829
1477476146.805:   1251  72   9  829
1477476146.805:   1222  72   9  829
1477476146.806:   1281  72   9  829
1477476146.806:   1406  72   9  829
1477476146.807:   1549  72   9  829
1477476146.808:   1673  72   9  829
1477476146.808:   1764  72   9  829
1477476146.809:   1816  72   9  829
1477476146.819:   1824  72   9  829
1477476146.819:   1789  72   9  829
1477476146.820:   1721  72   9  829
1477476146.821:   1650  72   9  829
1477476146.822:   1615  72   9  829
1477476146.822:   1638  72   9  829
1477476146.823:   1711  72   9  829
1477476146.833:   1804  72   9  829
1477476146.856:   1879  72   9  829
1477476146.857:   1916  72   9  829
1477476146.857:   1915  72   9  829
1477476146.857:   1887  72   9  829
1477476146.858:   1847  72   9  829
1477476146.858:   1806  72   9  829
1477476146.858:   1775  72   9  829
1477476146.859:   1752  72   9  829
1477476146.860:   1733  72   9  829
1477476146.860:   1712  73   9  829
1477476146.861:   1698  73   9  829
1477476146.865:   1694  73   9  829
1477476146.893:   1700  73   9  829
1477476146.893:   1700  73   9  829
1477476146.893:   1682  73   9  829
1477476146.893:   1656  73   9  829
1477476146.893:   1643  73   9  829
1477476146.894:   1653  73   9  829
1477476146.894:   1676  73   9  829
1477476146.894:   1696  73   9  829
1477476146.895:   1712  73   9  829
1477476146.896:   1732  73   9  829
1477476146.897:   1756  73   9  829
1477476146.897:   1769  73   9  829
1477476146.897:   1764  73   9  829
1477476146.898:   1757  73   9  829
1477476146.898:   1770  73   9  829
1477476146.898:   1804  73   9  829
1477476146.898:   1836  73   9  829
1477476146.898:   1848  73   9  829
1477476146.899:   1848  73   9  829
1477476146.899:   1853  73   9  829
1477476146.899:   1869  73   9  829
1477476146.899:   1883  73   9  829
1477476146.900:   1889  73   9  829
1477476146.900:   1895  73   9  829
1477476146.900:   1909  73   9  829
1477476146.901:   1922  73   9  829
1477476146.901:   1924  73   9  829
1477476146.903:   1921  73   9  829
1477476146.904:   1927  73   9  829
1477476146.909:   1933  73   9  829
1477476146.916:   1914  73   9  829
1477476146.917:   1861  73   9  829
1477476146.917:   1808  73   9  829
1477476146.918:   1797  73   9  829
1477476146.919:   1827  73   9  829
1477476146.931:   1858  73   9  829
1477476146.932:   1872  73   9  829
1477476146.932:   1892  73   9  829
1477476146.932:   1957  73   9  829
1477476146.932:   2057  73   9  829
1477476146.932:   2139  73   9  829
1477476146.932:   2162  73   9  829
1477476146.933:   2143  73   9  829
1477476146.934:   2135  73   9  829
1477476146.936:   2161  73   9  829
1477476146.938:   2203  73   9  829
1477476146.942:   2232  73   9  829
1477476146.942:   2248  73   9  829
1477476146.960:   2272  73   9  829
1477476146.962:   2310  73   9  829
1477476146.962:   2345  73   9  829
1477476146.966:   2363  73   9  829
1477476146.967:   2372  73   9  829
1477476146.967:   2388  73   9  829
1477476146.978:   2407  73   9  829
1477476146.978:   2410  73   9  829
1477476146.979:   2388  73   9  829
1477476146.979:   2358  73   9  829
1477476146.979:   2345  73   9  829
1477476146.979:   2352  73   9  829
1477476146.979:   2359  73   9  829
1477476146.979:   2347  73   9  829
1477476146.979:   2319  73   9  829
1477476146.980:   2286  73   9  829
1477476146.980:   2249  73   9  829
1477476146.980:   2206  73   9  829
1477476146.980:   2167  73   9  829
1477476146.981:   2151  73   9  829
1477476146.984:   2154  73   9  829
1477476146.985:   2149  73   9  829
1477476146.988:   2108  73   9  829
1477476146.989:   2038  73   9  829
1477476146.992:   1973  73   9  829
1477476146.993:   1931  73   9  829
1477476146.997:   1891  73   9  829
1477476146.998:   1824  73   9  829
1477476146.999:   1731  73   9  829
1477476147.000:   1641  73   9  829
1477476147.006:   1578  73   9  829
1477476147.007:   1531  73   9  829
1477476147.014:   1470  73   9  829
1477476147.015:   1384  73   9  829
1477476147.015:   1284  73   9  829
1477476147.017:   1186  73   9  829
1477476147.017:   1089  73   9  829
1477476147.018:    988  73   9  829
1477476147.020:    883  73   9  829
1477476147.021:    784  73   9  829
1477476147.025:    691  73   9  829
1477476147.026:    594  73   9  829
1477476147.033:    491  73   9  829
1477476147.033:    397  73   9  829
1477476147.035:    329  73   9  829
1477476147.035:    281  73   9  829
1477476147.036:    232  73   9  829
1477476147.039:    173  73   9  829
1477476147.039:    121  73   9  829
1477476147.044:     97  73   9  829
1477476147.056:     95  73   9  829
1477476147.056:     88  73   9  829
1477476147.056:     48  73   9  829
1477476147.056:    -23  73   9  829
1477476147.057:   -111  73   9  829
1477476147.057:   -206  73   9  829
1477476147.057:   -303  73   9  829
1477476147.057:   -392  73   9  829
1477476147.064:   -459  73   9  829
1477476147.066:   -499  73   9  829
1477476147.068:   -528  73   9  829
1477476147.069:   -565  73   9  829
1477476147.071:   -608  73   9  829
1477476147.071:   -644  73   9  829
1477476147.071:   -664  73   9  829
1477476147.077:   -681  73   9  829
1477476147.077:   -703  73   9  829
1477476147.078:   -718  73   9  829
1477476147.079:   -705  73   9  829
1477476147.080:   -652  73   9  829
1477476147.083:   -571  73   9  829
1477476147.084:   -486  73   9  829
1477476147.097:   -410  73   9  829
1477476147.097:   -355  73   9  829
1477476147.098:   -332  73   9  829
1477476147.099:   -351  73   9  829
1477476147.099:   -403  73   9  829
1477476147.099:   -460  73   9  829
1477476147.103:   -499  73   9  829
1477476147.104:   -521  73   9  829
1477476147.115:   -542  73   9  829
1477476147.115:   -569  73   9  829
1477476147.115:   -585  73   9  829
1477476147.116:   -580  73   9  829
1477476147.116:   -562  73   9  829
1477476147.116:   -550  73   9  829
1477476147.117:   -549  73   9  829
1477476147.117:   -548  73   9  829
1477476147.118:   -535  73   9  829
1477476147.119:   -518  73   9  829
1477476147.121:   -512  73   9  829
1477476147.123:   -522  73   9  829
1477476147.126:   -531  73   9  829
1477476147.130:   -525  73   9  829
1477476147.139:   -505  73   9  829
1477476147.140:   -500  73   9  829
1477476147.140:   -533  73   9  829
1477476147.140:   -592  73   9  829
1477476147.140:   -634  73   9  829
1477476147.140:   -623  73   9  829
1477476147.145:   -562  73   9  829
1477476147.146:   -490  73   9  829
1477476147.146:   -439  73   9  829
1477476147.147:   -414  73   9  829
1477476147.148:   -392  73   9  829
1477476147.151:   -363  73   9  829
1477476147.153:   -342  73   9  829
1477476147.158:   -341  73   9  829
1477476147.167:   -348  73   9  829
1477476147.205:   -338  73   9  829
1477476147.206:   -304  73   9  829
1477476147.206:   -264  73   9  829
1477476147.206:   -238  73   9  829
1477476147.207:   -230  73   9  829
1477476147.207:   -229  73   9  829
1477476147.207:   -229  73   9  829
1477476147.207:   -233  73   9  829
1477476147.208:   -242  73   9  829
1477476147.208:   -250  73   9  829
1477476147.208:   -253  73   9  829
1477476147.208:   -249  73   9  829
1477476147.208:   -235  73   9  829
1477476147.208:   -203  73   9  829
1477476147.208:   -152  73   9  829
1477476147.209:   -100  73   9  829
1477476147.209:    -75  73   9  829
1477476147.209:    -90  73   9  829
1477476147.209:   -124  73   9  829
1477476147.209:   -144  73   9  829
1477476147.209:   -136  73   9  829
1477476147.210:   -115  73   9  829
1477476147.211:   -109  73   9  829
1477476147.211:   -123  73   9  829
1477476147.211:   -130  73   9  829
1477476147.211:   -107  73   9  829
1477476147.212:    -52  73   9  829
1477476147.212:      3  73   9  829
1477476147.215:     24  73   9  829
1477476147.228:     12  73   9  829
1477476147.228:      2  73   9  829
1477476147.229:     25  73   9  829
1477476147.229:     72  73   9  829
1477476147.229:    102  73   9  829
1477476147.230:     89  73   9  829
1477476147.231:     49  73   9  829
1477476147.231:     13  73   9  829
1477476147.231:     -8  73   9  829
1477476147.233:    -31  73   9  829
1477476147.235:    -67  73   9  829
1477476147.239:   -100  73   9  829
1477476147.239:   -105  73   9  829
1477476147.241:    -79  73   9  829
1477476147.245:    -48  73   9  829
1477476147.245:    -35  73   9  829
1477476147.258:    -38  73   9  829
1477476147.259:    -40  73   9  829
1477476147.259:    -33  73   9  829
1477476147.259:    -24  73   9  829
1477476147.259:    -19  73   9  829
1477476147.259:    -16  73   9  829
1477476147.259:    -19  73   9  829
1477476147.261:    -37  73   9  829
1477476147.263:    -70  73   9  829
1477476147.268:   -103  73   9  829
1477476147.268:   -120  73   9  829
1477476147.269:   -128  73   9  829
1477476147.279:   -143  73   9  829
1477476147.279:   -171  73   9  829
1477476147.280:   -189  73   9  829
1477476147.280:   -177  73   9  829
1477476147.284:   -142  73   9  829
1477476147.286:   -107  73   9  829
1477476147.286:    -88  73   9  829
1477476147.287:    -76  73   9  829
1477476147.297:    -61  73   9  829
1477476147.297:    -52  73   9  829
1477476147.298:    -66  73   9  829
1477476147.298:   -102  73   9  829
1477476147.298:   -138  73   9  829
1477476147.298:   -154  73   9  829
1477476147.300:   -151  73   9  829
1477476147.301:   -137  73   9  829
1477476147.302:   -112  73   9  829
1477476147.305:    -69  73   9  829
1477476147.314:    -16  73   9  829
1477476147.314:     25  73   9  829
1477476147.315:     33  73   9  829
1477476147.315:     10  73   9  829
1477476147.316:    -22  73   9  829
1477476147.317:    -44  73   9  829
1477476147.318:    -55  73   9  829
1477476147.325:    -61  73   9  829
1477476147.326:    -59  73   9  829
1477476147.327:    -45  73   9  829
1477476147.328:    -18  73   9  829
1477476147.329:     12  73   9  829
1477476147.331:     42  73   9  829
1477476147.332:     70  73   9  829
1477476147.336:     96  73   9  829
1477476147.337:    112  73   9  829
1477476147.340:    114  73   9  829
1477476147.341:    116  73   9  829
1477476147.342:    136  73   9  829
1477476147.343:    176  73   9  829
1477476147.345:    209  73   9  829
1477476147.350:    210  73   9  829
1477476147.362:    179  73   9  829
1477476147.364:    145  73   9  829
1477476147.365:    136  73   9  829
1477476147.367:    151  73   9  829
1477476147.368:    166  73   9  829
1477476147.369:    168  73   9  829
1477476147.369:    173  73   9  829
1477476147.371:    209  73   9  829
1477476147.372:    280  73   9  829
1477476147.372:    355  73   9  829
1477476147.383:    388  73   9  829
1477476147.384:    360  73   9  829
1477476147.385:    294  73   9  829
1477476147.385:    229  73   9  829
1477476147.386:    184  73   9  829
1477476147.387:    150  73   9  829
1477476147.387:    122  73   9  829
1477476147.388:    118  73   9  829
1477476147.389:    161  73   9  829
1477476147.389:    238  73   9  829
1477476147.391:    308  73   9  829
1477476147.392:    339  73   9  829
1477476147.403:    345  73   9  829
1477476147.404:    360  73   9  829
1477476147.406:    397  73   9  829
1477476147.407:    432  73   9  829
1477476147.408:    439  73   9  829
1477476147.408:    424  73   9  829
1477476147.409:    416  73   9  829
1477476147.409:    431  73   9  829
1477476147.411:    459  73   9  829
1477476147.411:    487  73   9  829
1477476147.412:    507  73   9  829
1477476147.414:    520  73   9  829
1477476147.432:    526  73   9  829
1477476147.432:    530  73   9  829
1477476147.433:    545  73   9  829
1477476147.433:    579  73   9  829
1477476147.433:    624  73   9  829
1477476147.433:    656  73   9  829
1477476147.433:    662  73   9  829
1477476147.434:    648  73   9  829
1477476147.434:    627  73   9  829
1477476147.435:    596  73   9  829
1477476147.437:    546  73   9  829
1477476147.438:    479  73   9  829
1477476147.440:    416  73   9  829
1477476147.442:    378  73   9  829
1477476147.446:    358  73   9  829
1477476147.450:    332  73   9  829
1477476147.457:    284  73   9  829
1477476147.457:    227  73   9  829
1477476147.457:    181  73   9  829
1477476147.457:    153  73   9  829
1477476147.457:    133  73   9  829
1477476147.460:    110  73   9  829
1477476147.460:     89  73   9  829
1477476147.461:     79  73   9  829
1477476147.463:     79  73   9  829
1477476147.464:     72  73   9  829
1477476147.475:     46  73   9  829
1477476147.476:      2  73   9  829
1477476147.478:    -44  73   9  829
1477476147.479:    -76  73   9  829
1477476147.479:    -89  73   9  829
1477476147.481:    -91  73   9  829
1477476147.493:    -95  73   9  829
1477476147.493:   -110  73   9  829
1477476147.495:   -128  73   9  829
1477476147.496:   -133  73   9  829
1477476147.497:   -111  73   9  829
1477476147.498:    -75  73   9  829
1477476147.499:    -56  73   9  829
1477476147.499:    -75  73   9  829
1477476147.510:   -117  73   9  829
1477476147.513:   -136  73   9  829
1477476147.513:   -103  73   9  829
1477476147.515:    -28  73   9  829
1477476147.516:     46  73   9  829
1477476147.518:     92  73   9  829
1477476147.519:    128  73   9  829
1477476147.519:    193  73   9  829
1477476147.520:    308  73   9  829
1477476147.522:    454  73   9  829
1477476147.522:    599  73   9  829
1477476147.523:    729  73   9  829
1477476147.539:    853  73   9  829
1477476147.540:    986  73   9  829
1477476147.540:   1140  73   9  829
1477476147.540:   1329  73   9  829
1477476147.541:   1559  73   9  829
1477476147.541:   1825  73   9  829
1477476147.542:   2111  73   9  829
1477476147.542:   2407  73   9  829
1477476147.542:   2701  73   9  829
1477476147.544:   2953  73   9  829
1477476147.544:   3096  73   9  829
1477476147.545:   3077  73   9  829
1477476147.545:   2915  73   9  829
1477476147.545:   2676  73   9  829
1477476147.547:   2376  73   9  829
1477476147.549:   1901  73   9  829
1477476147.560:   1075  73   9  829
1477476147.560:   -171  73   9  829
1477476147.560:  -1702  73   9  829
1477476147.560:  -3249  73   9  829
1477476147.560:  -4590  73   9  829
1477476147.562:  -5655  73   9  829
1477476147.562:  -6500  73   9  829
1477476147.563:  -7178  73   9  829
1477476147.565:  -7665  73   9  829
1477476147.567:  -7877  73   9  829
1477476147.570:  -7736  73   9  829
1477476147.571:  -7255  73   9  829
1477476147.575:  -6561  73   9  829
1477476147.575:  -5858  73   9  829
1477476147.577:  -5324  73   9  829
1477476147.580:  -4997  73   9  829
1477476147.604:  -4760  73   9  829
1477476147.604:  -4448  73   9  829
1477476147.604:  -3986  73   9  829
1477476147.604:  -3438  73   9  829
1477476147.604:  -2924  73   9  829
1477476147.605:  -2492  73   9  829
1477476147.605:  -2084  73   9  829
1477476147.605:  -1613  73   9  829
1477476147.605:  -1061  73   9  829
1477476147.606:   -490  73   9  829
1477476147.606:     15  73   9  829
1477476147.606:    404  73   9  829
1477476147.606:    665  73   9  829
1477476147.607:    799  73   9  829
1477476147.608:    818  73   9  829
1477476147.611:    765  73   9  829
1477476147.613:    714  73   9  829
1477476147.645:    732  73   9  829
1477476147.646:    828  73   9  829
1477476147.648:    974  73   9  829
1477476147.648:   1138  73   9  829
1477476147.649:   1307  73   9  829
1477476147.650:   1467  73   9  829
1477476147.651:   1579  73   9  829
1477476147.652:   1600  73   9  829
1477476147.652:   1538  73   9  829
1477476147.653:   1454  73   9  829
1477476147.656:   1419  73   9  829
1477476147.665:   1447  73   9  829
1477476147.666:   1494  73   9  829
1477476147.667:   1512  73   9  829
1477476147.667:   1512  73   9  829
1477476147.668:   1536  73   9  829
1477476147.669:   1603  73   9  829
1477476147.669:   1667  73   9  829
1477476147.670:   1660  73   9  829
1477476147.671:   1565  73   9  829
1477476147.671:   1438  73   9  829
1477476147.672:   1358  73   9  829
1477476147.673:   1350  73   9  829
1477476147.702:   1374  73   9  829
1477476147.703:   1383  73   9  829
1477476147.703:   1368  73   9  829
1477476147.703:   1359  73   9  829
1477476147.703:   1381  73   9  829
1477476147.704:   1420  73   9  829
1477476147.704:   1445  73   9  829
1477476147.704:   1442  73   9  829
1477476147.704:   1424  73   9  829
1477476147.705:   1411  73   9  829
1477476147.705:   1411  73   9  829
1477476147.705:   1414  73   9  829
1477476147.706:   1414  73   9  829
1477476147.706:   1417  73   9  829
1477476147.706:   1432  73   9  829
1477476147.706:   1457  73   9  829
1477476147.707:   1472  73   9  829
1477476147.707:   1458  73   9  829
1477476147.707:   1420  73   9  829
1477476147.707:   1394  73   9  829
1477476147.707:   1420  73   9  829
1477476147.708:   1499  73   9  829
1477476147.708:   1581  73   9  829
1477476147.708:   1617  73   9  829
1477476147.708:   1613  73   9  829
1477476147.709:   1620  73   9  829
1477476147.713:   1674  73   9  829
1477476147.714:   1747  73   9  829
1477476147.715:   1768  73   9  829
1477476147.717:   1713  73   9  829
1477476147.719:   1640  73   9  829
1477476147.746:   1624  73   9  829
1477476147.747:   1674  73   9  829
1477476147.751:   1718  73   9  829
1477476147.752:   1697  73   9  829
1477476147.753:   1640  73   9  829
1477476147.754:   1627  73   9  829
1477476147.755:   1685  73   9  829
1477476147.768:   1753  73   9  829
1477476147.769:   1760  73   9  829
1477476147.769:   1720  73   9  829
1477476147.772:   1716  73   9  829
1477476147.773:   1794  73   9  829
1477476147.774:   1895  73   9  829
1477476147.797:   1933  73   9  829
1477476147.798:   1899  73   9  829
1477476147.799:   1878  73   9  829
1477476147.800:   1941  73   9  829
1477476147.800:   2052  73   9  829
1477476147.802:   2119  73   9  829
1477476147.802:   2107  73   9  829
1477476147.803:   2085  73   9  829
1477476147.804:   2145  73   9  829
1477476147.805:   2282  73   9  829
1477476147.806:   2399  73   9  829
1477476147.807:   2421  73   9  829
1477476147.807:   2381  73   9  829
1477476147.808:   2368  73   9  829
1477476147.822:   2420  73   9  829
1477476147.823:   2487  73   9  829
1477476147.823:   2503  73   9  829
1477476147.824:   2474  73   9  829
1477476147.824:   2469  73   9  829
1477476147.825:   2520  73   9  829
1477476147.826:   2579  73   9  829
1477476147.826:   2580  73   9  829
1477476147.826:   2516  73   9  829
1477476147.827:   2447  73   9  829
1477476147.828:   2423  73   9  829
1477476147.829:   2424  73   9  829
1477476147.840:   2395  73   9  829
1477476147.840:   2323  73   9  829
1477476147.840:   2260  73   9  829
1477476147.841:   2257  73   9  829
1477476147.841:   2303  73   9  829
1477476147.841:   2331  73   9  829
1477476147.841:   2295  73   9  829
1477476147.841:   2208  73   9  829
1477476147.842:   2116  73   9  829
1477476147.842:   2038  73   9  829
1477476147.842:   1957  73   9  829
1477476147.842:   1862  73   9  829
1477476147.843:   1777  73   9  829
1477476147.843:   1734  73   9  829
1477476147.843:   1729  73   9  829
1477476147.843:   1721  73   9  829
1477476147.843:   1676  73   9  829
1477476147.844:   1611  73   9  829
1477476147.844:   1558  73   9  829
1477476147.844:   1517  73   9  829
1477476147.844:   1449  73   9  829
1477476147.845:   1332  73   9  829
1477476147.846:   1200  73   9  829
1477476147.846:   1107  73   9  829
1477476147.847:   1064  73   9  829
1477476147.851:   1025  73   9  829
1477476147.858:    949  73   9  829
1477476147.858:    851  73   9  829
1477476147.859:    781  73   9  829
1477476147.859:    747  73   9  829
1477476147.859:    701  73   9  829
1477476147.859:    617  73   9  829
1477476147.859:    528  73   9  829
1477476147.863:    492  73   9  829
1477476147.865:    507  73   9  829
1477476147.867:    503  73   9  829
1477476147.869:    435  73   9  829
1477476147.870:    341  73   9  829
1477476147.871:    293  73   9  829
1477476147.873:    306  73   9  829
1477476147.875:    321  73   9  829
1477476147.876:    287  73   9  829
1477476147.881:    226  73   9  829
1477476147.881:    194  73   9  829
1477476147.883:    195  73   9  829
1477476147.884:    181  73   9  829
1477476147.890:    117  73   9  829
1477476147.890:     31  73   9  829
1477476147.896:    -29  73   9  829
1477476147.897:    -58  73   9  829
1477476147.908:    -92  73   9  829
1477476147.908:   -144  73   9  829
1477476147.909:   -177  73   9  829
1477476147.909:   -152  73   9  829
1477476147.909:    -90  73   9  829
1477476147.909:    -43  73   9  829
1477476147.909:    -34  73   9  829
1477476147.910:    -31  73   9  829
1477476147.911:     -3  73   9  829
1477476147.912:     30  73   9  829
1477476147.918:     23  73   9  829
1477476147.918:    -27  73   9  829
1477476147.919:    -67  73   9  829
1477476147.921:    -52  73   9  829
1477476147.922:     -7  73   9  829
1477476147.927:      7  73   9  829
1477476147.928:    -31  73   9  829
1477476147.929:    -82  73   9  829
1477476147.943:    -98  73   9  829
1477476147.944:    -80  73   9  829
1477476147.945:    -67  73   9  829
1477476147.946:    -76  73   9  829
1477476147.950:    -79  73   9  829
1477476147.951:    -44  73   9  829
1477476147.961:     27  73   9  829
1477476147.962:    100  73   9  829
1477476147.967:    148  73   9  829
1477476147.968:    170  73   9  829
1477476147.968:    171  73   9  829
1477476147.969:    151  73   9  829
1477476147.980:    120  73   9  829
1477476147.983:    102  73   9  829
1477476147.984:    115  73   9  829
1477476147.984:    139  73   9  829
1477476147.985:    143  73   9  829
1477476147.985:    124  73   9  829
1477476147.986:    118  73   9  829
1477476147.986:    149  73   9  829
1477476147.987:    192  73   9  829
1477476147.987:    192  73   9  829
1477476147.998:    127  73   9  829
1477476147.999:     42  73   9  829
1477476148.000:     -5  73   9  829
1477476148.000:      0  73   9  829
1477476148.001:     20  73   9  829
1477476148.002:     24  73   9  829
1477476148.002:     27  73   9  829
1477476148.003:     58  73   9  829
1477476148.004:    115  73   9  829
1477476148.067:    152  73   9  829
1477476148.074:    138  73   9  829
1477476148.075:    100  73   9  829
1477476148.075:     96  73   9  829
1477476148.075:    143  73   9  829
1477476148.075:    194  73   9  829
1477476148.075:    191  73   9  829
1477476148.075:    143  73   9  829
1477476148.076:    114  73   9  829
1477476148.076:    151  73   9  829
1477476148.076:    221  73   9  829
1477476148.076:    254  73   9  829
1477476148.076:    224  73   9  829
1477476148.076:    180  73   9  829
1477476148.076:    190  73   9  829
1477476148.077:    256  73   9  829
1477476148.077:    320  73   9  829
1477476148.077:    329  73   9  829
1477476148.077:    285  73   9  829
1477476148.077:    237  73   9  829
1477476148.077:    221  73   9  829
1477476148.077:    222  73   9  829
1477476148.078:    199  73   9  829
1477476148.078:    141  73   9  829
1477476148.078:     78  73   9  829
1477476148.078:     58  73   9  829
1477476148.078:     94  73   9  829
1477476148.078:    149  73   9  829
1477476148.078:    175  73   9  829
1477476148.079:    169  73   9  829
1477476148.079:    168  73   9  829
1477476148.079:    202  73   9  829
1477476148.079:    252  73   9  829
1477476148.079:    268  73   9  829
1477476148.080:    232  73   9  829
1477476148.080:    182  73   9  829
1477476148.080:    164  73   9  829
1477476148.080:    179  73   9  829
1477476148.081:    186  73   9  829
1477476148.081:    157  73   9  829
1477476148.081:    117  73   9  829
1477476148.081:    106  73   9  829
1477476148.081:    120  73   9  829
1477476148.081:    122  73   9  829
1477476148.081:     92  73   9  829
1477476148.082:     59  73   9  829
1477476148.082:     71  73   9  829
1477476148.088:    133  73   9  829
1477476148.089:    194  73   9  829
1477476148.090:    197  73   9  829
1477476148.092:    145  73   9  829
1477476148.093:     84  73   9  829
1477476148.096:     60  73   9  829
1477476148.133:     66  73   9  829
1477476148.133:     71  73   9  829
1477476148.134:     59  73   9  829
1477476148.134:     45  73   9  829
1477476148.140:     53  73   9  829
1477476148.141:     84  73   9  829
1477476148.142:    119  73   9  829
1477476148.142:    144  73   9  829
1477476148.142:    157  73   9  829
1477476148.143:    153  73   9  829
1477476148.143:    127  73   9  829
1477476148.144:     85  73   9  829
1477476148.144:     52  73   9  829
1477476148.145:     57  73   9  829
1477476148.145:     99  73   9  829
1477476148.146:    151  73   9  829
1477476148.146:    182  73   9  829
1477476148.146:    186  73   9  829
1477476148.147:    182  73   9  829
1477476148.147:    184  73   9  829
1477476148.148:    196  73   9  829
1477476148.148:    208  73   9  829
1477476148.149:    218  73   9  829
1477476148.149:    229  73   9  829
1477476148.161:    243  73   9  829
1477476148.161:    257  73   9  829
1477476148.161:    267  73   9  829
1477476148.162:    270  73   9  829
1477476148.162:    261  73   9  829
1477476148.163:    238  73   9  829
1477476148.163:    201  73   9  829
1477476148.163:    154  73   9  829
1477476148.164:    112  73   9  829
1477476148.164:     86  73   9  829
1477476148.165:     83  73   9  829
1477476148.165:     99  73   9  829
1477476148.166:    114  73   9  829
1477476148.168:    112  73   9  829
1477476148.170:     91  73   9  829
1477476148.172:     60  73   9  829
1477476148.174:     38  73   9  829
1477476148.179:     31  73   9  829
1477476148.194:     35  73   9  829
1477476148.195:     46  73   9  829
1477476148.196:     63  73   9  829
1477476148.197:     84  73   9  829
1477476148.198:    101  73   9  829
1477476148.199:    108  73   9  829
1477476148.200:    107  73   9  829
1477476148.201:    114  73   9  829
1477476148.202:    134  73   9  829
1477476148.202:    157  73   9  829
1477476148.203:    170  73   9  829
1477476148.204:    182  73   9  829
1477476148.214:    215  73   9  829
1477476148.215:    279  73   9  829
1477476148.216:    351  73   9  829
1477476148.217:    389  73   9  829
1477476148.218:    373  73   9  829
1477476148.218:    327  73   9  829
1477476148.219:    284  73   9  829
1477476148.220:    260  73   9  829
1477476148.220:    244  73   9  829
1477476148.221:    227  73   9  829
1477476148.222:    211  73   9  829
1477476148.223:    199  73   9  829
1477476148.233:    188  73   9  829
1477476148.234:    177  73   9  829
1477476148.235:    179  73   9  829
1477476148.246:    212  73   9  829
1477476148.247:    263  73   9  829
1477476148.248:    298  73   9  829
1477476148.249:    299  73   9  829
1477476148.250:    294  73   9  829
1477476148.267:    334  73   9  829
1477476148.268:    430  73   9  829
1477476148.269:    533  73   9  829
1477476148.269:    589  73   9  829
1477476148.270:    602  73   9  829
1477476148.271:    623  73   9  829
1477476148.271:    676  73   9  829
1477476148.272:    715  73   9  829
1477476148.272:    682  73   9  829
1477476148.272:    585  73   9  829
1477476148.272:    501  73   9  829
1477476148.272:    489  73   9  829
1477476148.273:    517  73   9  829
1477476148.273:    497  73   9  829
1477476148.273:    396  73   9  829
1477476148.273:    280  73   9  829
1477476148.276:    245  73   9  829
1477476148.276:    308  73   9  829
1477476148.277:    391  73   9  829
1477476148.279:    409  73   9  829
1477476148.288:    364  73   9  829
1477476148.288:    335  73   9  829
1477476148.289:    381  73   9  829
1477476148.289:    471  73   9  829
1477476148.290:    515  73   9  829
1477476148.291:    456  73   9  829
1477476148.293:    326  73   9  829
1477476148.294:    211  73   9  829
1477476148.296:    171  73   9  829
1477476148.299:    192  73   9  829
1477476148.308:    221  73   9  829
1477476148.308:    222  73   9  829
1477476148.309:    209  73   9  829
1477476148.309:    209  73   9  829
1477476148.310:    232  73   9  829
1477476148.310:    266  73   9  829
1477476148.312:    291  73   9  829
1477476148.317:    295  73   9  829
1477476148.325:    266  73   9  829
1477476148.326:    196  73   9  829
1477476148.327:    101  73   9  829
1477476148.327:     32  73   9  829
1477476148.328:     40  73   9  829
1477476148.329:    122  73   9  829
1477476148.332:    218  73   9  829
1477476148.332:    268  73   9  829
1477476148.344:    269  73   9  829
1477476148.345:    279  73   9  829
1477476148.345:    348  73   9  829
1477476148.346:    477  73   9  829
1477476148.347:    628  73   9  829
1477476148.348:    768  73   9  829
1477476148.348:    885  73   9  829
1477476148.349:    981  73   9  829
1477476148.351:   1061  73   9  829
1477476148.352:   1144  73   9  829
1477476148.362:   1264  73   9  829
1477476148.363:   1444  73   9  829
1477476148.364:   1670  73   9  829
1477476148.365:   1910  73   9  829
1477476148.366:   2171  73   9  829
1477476148.366:   2496  73   9  829
1477476148.367:   2898  73   9  829
1477476148.367:   3291  73   9  829
1477476148.368:   3535  73   9  829
1477476148.372:   3554  73   9  829
1477476148.381:   3400  73   9  829
1477476148.382:   3154  73   9  829
1477476148.383:   2774  73   9  829
1477476148.383:   2075  73   9  829
1477476148.385:    907  73   9  829
1477476148.386:   -660  73   9  829
1477476148.386:  -2338  73   9  829
1477476148.387:  -3838  73   9  829
1477476148.387:  -5068  73   9  829
1477476148.388:  -6113  73   9  829
1477476148.400:  -7039  73   9  829
1477476148.401:  -7775  73   9  829
1477476148.401:  -8163  73   9  829
1477476148.402:  -8121  73   9  829
1477476148.403:  -7699  73   9  829
1477476148.403:  -7043  73   9  829
1477476148.404:  -6302  73   9  829
1477476148.404:  -5598  73   9  829
1477476148.405:  -5024  73   9  829
1477476148.408:  -4608  73   9  829
1477476148.414:  -4286  73   9  829
1477476148.415:  -3942  73   9  829
1477476148.423:  -3505  73   9  829
1477476148.424:  -3009  73   9  829
1477476148.425:  -2532  73   9  829
1477476148.425:  -2101  73   9  829
1477476148.426:  -1665  73   9  829
1477476148.426:  -1151  73   9  829
1477476148.427:   -556  73   9  829
1477476148.428:     41  73   9  829
1477476148.429:    536  73   9  829
1477476148.430:    864  73   9  829
1477476148.441:   1021  73   9  829
1477476148.441:   1047  73   9  829
1477476148.442:   1012  73   9  829
1477476148.442:    982  73   9  829
1477476148.442:    996  73   9  829
1477476148.443:   1061  73   9  829
1477476148.444:   1170  73   9  829
1477476148.447:   1308  73   9  829
1477476148.458:   1455  73   9  829
1477476148.458:   1591  73   9  829
1477476148.459:   1695  73   9  829
1477476148.459:   1768  73   9  829
1477476148.462:   1829  73   9  829
1477476148.463:   1893  73   9  829
1477476148.465:   1956  73   9  829
1477476148.465:   1999  73   9  829
1477476148.475:   2014  73   9  829
1477476148.475:   2008  73   9  829
1477476148.475:   1994  73   9  829
1477476148.476:   1975  73   9  829
1477476148.476:   1949  73   9  829
1477476148.476:   1916  73   9  829
1477476148.477:   1880  73   9  829
1477476148.482:   1846  73   9  829
1477476148.485:   1815  73   9  829
1477476148.486:   1793  73   9  829
1477476148.487:   1792  73   9  829
1477476148.490:   1817  73   9  827
1477476148.491:   1857  73   9  827
1477476148.492:   1880  73   9  827
1477476148.496:   1853  73   9  827
1477476148.497:   1770  73   9  827
1477476148.497:   1662  73   9  827
1477476148.499:   1581  73   9  827
1477476148.514:   1551  73   9  827
1477476148.515:   1556  73   9  827
1477476148.516:   1550  73   9  827
1477476148.517:   1511  73   9  827
1477476148.517:   1461  73   9  827
1477476148.518:   1437  73   9  827
1477476148.519:   1453  73   9  827
1477476148.519:   1481  73   9  827
1477476148.520:   1487  73   9  827
1477476148.521:   1467  73   9  827
1477476148.521:   1450  73   9  827
1477476148.523:   1465  73   9  827
1477476148.523:   1508  73   9  827
1477476148.528:   1560  73   9  827
1477476148.529:   1606  73   9  827
1477476148.534:   1650  73   9  827
1477476148.535:   1699  73   9  827
1477476148.537:   1741  73   9  827
1477476148.538:   1763  73   9  827
1477476148.539:   1763  73   9  827
1477476148.555:   1759  73   9  827
1477476148.558:   1768  73   9  827
1477476148.558:   1784  73   9  827
1477476148.560:   1784  73   9  827
1477476148.562:   1759  73   9  827
1477476148.563:   1716  73   9  827
1477476148.564:   1673  73   9  827
1477476148.564:   1638  73   9  827
1477476148.564:   1607  73   9  827
1477476148.564:   1585  73   9  827
1477476148.564:   1582  73   9  827
1477476148.564:   1605  73   9  827
1477476148.565:   1647  73   9  827
1477476148.565:   1693  73   9  827
1477476148.569:   1731  73   9  827
1477476148.570:   1757  73   9  827
1477476148.573:   1773  73   9  827
1477476148.574:   1781  73   9  827
1477476148.575:   1791  73   9  827
1477476148.577:   1813  73   9  827
1477476148.579:   1853  73   9  827
1477476148.583:   1906  73   9  827
1477476148.596:   1959  73   9  827
1477476148.596:   2004  73   9  827
1477476148.596:   2036  73   9  827
1477476148.597:   2058  73   9  827
1477476148.597:   2076  73   9  827
1477476148.597:   2086  73   9  827
1477476148.597:   2083  73   9  827
1477476148.597:   2070  73   9  827
1477476148.600:   2066  73   9  827
1477476148.601:   2096  73   9  827
1477476148.605:   2167  73   9  827
1477476148.606:   2258  73   9  827
1477476148.612:   2332  73   9  827
1477476148.612:   2366  73   9  827
1477476148.621:   2368  73   9  827
1477476148.622:   2356  73   9  827
1477476148.622:   2336  73   9  827
1477476148.622:   2305  73   9  827
1477476148.622:   2259  73   9  827
1477476148.622:   2208  73   9  827
1477476148.655:   2161  73   9  827
1477476148.655:   2115  73   9  827
1477476148.658:   2065  73   9  827
1477476148.659:   2013  73   9  827
1477476148.659:   1971  73   9  827
1477476148.659:   1944  73   9  827
1477476148.659:   1920  73   9  827
1477476148.659:   1884  73   9  827
1477476148.659:   1831  73   9  827
1477476148.660:   1770  73   9  827
1477476148.663:   1717  73   9  827
1477476148.663:   1677  73   9  827
1477476148.663:   1645  73   9  827
1477476148.664:   1607  73   9  827
1477476148.665:   1547  73   9  827
1477476148.667:   1463  73   9  827
1477476148.668:   1372  73   9  827
1477476148.668:   1296  73   9  827
1477476148.679:   1244  73   9  827
1477476148.680:   1204  73   9  827
1477476148.680:   1154  73   9  827
1477476148.681:   1090  73   9  827
1477476148.681:   1031  73   9  827
1477476148.682:    990  73   9  827
1477476148.683:    952  73   9  827
1477476148.683:    887  73   9  827
1477476148.684:    786  73   9  827
1477476148.685:    677  73   9  827
1477476148.685:    599  73   9  827
1477476148.686:    559  73   9  827
1477476148.687:    525  73   9  827
1477476148.687:    470  73   9  827
1477476148.688:    402  73   9  827
1477476148.689:    353  73   9  827
1477476148.700:    326  73   9  827
1477476148.701:    284  73   9  827
1477476148.701:    189  73   9  827
1477476148.702:     59  73   9  827
1477476148.703:    -47  73   9  827
1477476148.703:    -99  73   9  827
1477476148.704:   -123  73   9  827
1477476148.704:   -165  73   9  827
1477476148.706:   -231  73   9  827
1477476148.707:   -284  73   9  827
1477476148.709:   -296  73   9  827
1477476148.710:   -286  73   9  827
1477476148.724:   -295  73   9  827
1477476148.725:   -334  73   9  827
1477476148.726:   -384  73   9  827
1477476148.727:   -416  73   9  827
1477476148.727:   -426  73   9  827
1477476148.728:   -423  73   9  827
1477476148.729:   -405  73   9  827
1477476148.729:   -373  73   9  827
1477476148.730:   -337  73   9  827
1477476148.731:   -325  73   9  827
1477476148.735:   -347  73   9  827
1477476148.736:   -387  73   9  827
1477476148.743:   -412  73   9  827
1477476148.744:   -405  73   9  827
1477476148.744:   -369  73   9  827
1477476148.745:   -316  73   9  827
1477476148.746:   -259  73   9  827
1477476148.748:   -210  73   9  827
1477476148.749:   -181  73   9  827
1477476148.751:   -171  73   9  827
1477476148.752:   -171  73   9  827
1477476148.754:   -173  73   9  827
1477476148.763:   -179  73   9  827
1477476148.763:   -192  73   9  827
1477476148.763:   -207  73   9  827
1477476148.763:   -218  73   9  827
1477476148.764:   -224  73   9  827
1477476148.767:   -229  73   9  827
1477476148.767:   -230  73   9  827
1477476148.770:   -213  73   9  827
1477476148.771:   -175  73   9  827
1477476148.775:   -137  73   9  827
1477476148.783:   -123  73   9  827
1477476148.783:   -128  73   9  827
1477476148.783:   -122  73   9  827
1477476148.783:    -80  73   9  827
1477476148.783:    -10  73   9  827
1477476148.789:     57  73   9  827
1477476148.866:     94  73   9  827
1477476148.866:    102  73   9  827
1477476148.866:     95  73   9  827
1477476148.866:     85  73   9  827
1477476148.867:     75  73   9  827
1477476148.867:     68  73   9  827
1477476148.867:     63  73   9  827
1477476148.867:     61  73   9  827
1477476148.867:     61  73   9  827
1477476148.868:     65  73   9  827
1477476148.868:     74  73   9  827
1477476148.868:     85  73   9  827
1477476148.868:     89  73   9  827
1477476148.868:     82  73   9  827
1477476148.869:     75  73   9  827
1477476148.869:     83  73   9  827
1477476148.869:    111  73   9  827
1477476148.869:    138  73   9  827
1477476148.869:    146  73   9  827
1477476148.870:    136  73   9  827
1477476148.870:    127  73   9  827
1477476148.870:    131  73   9  827
1477476148.870:    133  73   9  827
1477476148.870:    107  73   9  827
1477476148.871:     49  73   9  827
1477476148.871:     -9  73   9  827
1477476148.871:    -30  73   9  827
1477476148.871:     -7  73   9  827
1477476148.871:     37  73   9  827
1477476148.873:     73  73   9  827
1477476148.873:     98  73   9  827
1477476148.873:    122  73   9  827
1477476148.884:    142  73   9  827
1477476148.884:    144  73   9  827
1477476148.885:    127  73   9  827
1477476148.885:    112  73   9  827
1477476148.885:    117  73   9  827
1477476148.885:    133  73   9  827
1477476148.885:    134  73   9  827
1477476148.885:    117  73   9  827
1477476148.886:    108  73   9  827
1477476148.886:    128  73   9  827
1477476148.886:    166  73   9  827
1477476148.886:    183  73   9  827
1477476148.886:    159  73   9  827
1477476148.886:    112  73   9  827
1477476148.887:     77  73   9  827
1477476148.887:     70  73   9  827
1477476148.887:     75  73   9  827
1477476148.887:     73  73   9  827
1477476148.887:     58  73   9  827
1477476148.888:     34  73   9  827
1477476148.889:      8  73   9  827
1477476148.890:    -22  73   9  827
1477476148.891:    -58  73   9  827
1477476148.898:    -94  73   9  827
1477476148.899:   -116  73   9  827
1477476148.899:   -113  73   9  827
1477476148.900:    -86  73   9  827
1477476148.902:    -51  73   9  827
1477476148.914:    -24  73   9  827
1477476148.914:     -6  73   9  827
1477476148.914:     16  73   9  827
1477476148.914:     43  73   9  827
1477476148.914:     59  73   9  827
1477476148.916:     43  73   9  827
1477476148.916:      0  73   9  827
1477476148.918:    -41  73   9  827
1477476148.919:    -54  73   9  827
1477476148.925:    -40  73   9  827
1477476148.933:    -26  73   9  827
1477476148.934:    -31  73   9  827
1477476148.934:    -43  73   9  827
1477476148.934:    -38  73   9  827
1477476148.934:     -9  73   9  827
1477476148.934:     28  73   9  827
1477476148.939:     60  73   9  827
1477476148.939:     90  73   9  827
1477476148.940:    129  73   9  827
1477476148.944:    182  73   9  827
1477476148.944:    235  73   9  827
1477476148.945:    271  73   9  827
1477476148.955:    276  73   9  827
1477476148.956:    247  73   9  827
1477476148.956:    187  73   9  827
1477476148.956:    111  73   9  827
1477476148.957:     39  73   9  827
1477476148.958:    -13  73   9  827
1477476148.962:    -46  73   9  827
1477476148.963:    -68  73   9  827
1477476148.965:    -84  73   9  827
1477476148.965:    -87  73   9  827
1477476148.983:    -67  73   9  827
1477476148.983:    -30  73   9  827
1477476148.983:     -3  73   9  827
1477476148.983:    -12  73   9  827
1477476148.983:    -59  73   9  827
1477476148.983:   -116  73   9  827
1477476148.984:   -150  73   9  827
1477476148.984:   -148  73   9  827
1477476148.984:   -126  73   9  827
1477476148.985:   -108  73   9  827
1477476148.989:   -105  73   9  827
1477476148.989:   -106  73   9  827
1477476148.995:    -89  73   9  827
1477476148.995:    -50  73   9  827
1477476148.995:      3  73   9  827
1477476148.998:     47  73   9  827
1477476148.999:     72  73   9  827
1477476149.026:     82  73   9  827
1477476149.037:     92  73   9  827
1477476149.037:    113  73   9  827
1477476149.037:    139  73   9  827
1477476149.037:    157  73   9  827
1477476149.037:    163  73   9  827
1477476149.037:    172  73   9  827
1477476149.038:    198  73   9  827
1477476149.038:    243  73   9  827
1477476149.038:    294  73   9  827
1477476149.038:    334  73   9  827
1477476149.038:    362  73   9  827
1477476149.038:    388  73   9  827
1477476149.038:    414  73   9  827
1477476149.039:    432  73   9  827
1477476149.039:    430  73   9  827
1477476149.039:    405  73   9  827
1477476149.039:    360  73   9  827
1477476149.040:    314  73   9  827
1477476149.042:    290  73   9  827
1477476149.042:    307  73   9  827
1477476149.044:    365  73   9  827
1477476149.045:    441  73   9  827
1477476149.046:    503  73   9  827
1477476149.048:    536  73   9  827
1477476149.059:    550  73   9  827
1477476149.059:    561  73   9  827
1477476149.059:    577  73   9  827
1477476149.059:    586  73   9  827
1477476149.059:    582  73   9  827
1477476149.064:    574  73   9  827
1477476149.065:    583  73   9  827
1477476149.066:    623  73   9  827
1477476149.068:    691  73   9  827
1477476149.069:    766  73   9  827
1477476149.072:    824  73   9  827
1477476149.073:    843  73   9  827
1477476149.081:    822  73   9  827
1477476149.082:    773  73   9  827
1477476149.083:    718  73   9  827
1477476149.084:    678  73   9  827
1477476149.084:    656  73   9  827
1477476149.085:    637  73   9  827
1477476149.086:    599  73   9  827
1477476149.092:    535  73   9  827
1477476149.111:    464  73   9  827
1477476149.111:    421  73   9  827
1477476149.112:    418  73   9  827
1477476149.112:    428  73   9  827
1477476149.112:    408  73   9  827
1477476149.112:    346  73   9  827
1477476149.112:    279  73   9  827
1477476149.112:    255  73   9  827
1477476149.112:    283  73   9  827
1477476149.113:    321  73   9  827
1477476149.113:    317  73   9  827
1477476149.113:    268  73   9  827
1477476149.113:    210  73   9  827
1477476149.117:    178  73   9  827
1477476149.117:    177  73   9  827
1477476149.118:    190  73   9  827
1477476149.122:    210  73   9  827
1477476149.123:    242  73   9  827
1477476149.125:    284  73   9  827
1477476149.127:    318  73   9  827
1477476149.133:    325  73   9  827
1477476149.134:    309  73   9  827
1477476149.153:    286  73   9  827
1477476149.153:    272  73   9  827
1477476149.153:    267  73   9  827
1477476149.153:    271  73   9  827
1477476149.154:    285  73   9  827
1477476149.154:    309  73   9  827
1477476149.154:    335  73   9  827
1477476149.154:    363  73   9  827
1477476149.155:    416  73   9  827
1477476149.155:    515  73   9  827
1477476149.155:    653  73   9  827
1477476149.155:    796  73   9  827
1477476149.159:    919  73   9  827
1477476149.159:   1035  73   9  827
1477476149.163:   1171  73   9  827
1477476149.164:   1334  73   9  827
1477476149.165:   1506  73   9  827
1477476149.169:   1674  73   9  827
1477476149.170:   1849  73   9  827
1477476149.172:   2051  73   9  827
1477476149.173:   2293  73   9  827
1477476149.174:   2587  73   9  827
1477476149.176:   2944  73   9  827
1477476149.177:   3345  73   9  827
1477476149.182:   3707  73   9  827
1477476149.183:   3924  73   9  827
1477476149.194:   3950  73   9  827
1477476149.194:   3815  73   9  827
1477476149.195:   3530  73   9  827
1477476149.197:   2991  73   9  827
1477476149.198:   2021  73   9  827
1477476149.198:    567  73   9  827
1477476149.199:  -1180  73   9  827
1477476149.201:  -2886  73   9  827
1477476149.213:  -4325  73   9  827
1477476149.213:  -5497  73   9  827
1477476149.214:  -6514  73   9  827
1477476149.214:  -7374  73   9  827
1477476149.214:  -7923  73   9  827
1477476149.214:  -8014  73   9  827
1477476149.214:  -7672  73   9  827
1477476149.214:  -7083  73   9  827
1477476149.216:  -6429  73   9  827
1477476149.217:  -5785  73   9  827
1477476149.218:  -5167  73   9  827
1477476149.222:  -4621  73   9  827
1477476149.233:  -4212  73   9  827
1477476149.233:  -3936  73   9  827
1477476149.233:  -3697  73   9  827
1477476149.233:  -3390  73   9  827
1477476149.233:  -2998  73   9  827
1477476149.233:  -2583  73   9  827
1477476149.234:  -2194  73   9  827
1477476149.237:  -1799  73   9  827
1477476149.242:  -1326  73   9  827
1477476149.242:   -751  73   9  827
1477476149.243:   -132  73   9  827
1477476149.244:    428  73   9  827
1477476149.246:    846  73   9  827
1477476149.249:   1085  73   9  827
1477476149.259:   1164  73   9  827
1477476149.259:   1155  73   9  827
1477476149.259:   1142  73   9  827
1477476149.259:   1173  73   9  827
1477476149.259:   1235  73   9  827
1477476149.260:   1285  73   9  827
1477476149.262:   1299  73   9  827
1477476149.269:   1299  73   9  827
1477476149.278:   1321  73   9  827
1477476149.278:   1379  73   9  827
1477476149.278:   1455  73   9  827
1477476149.279:   1522  73   9  827
1477476149.279:   1562  73   9  827
1477476149.279:   1576  73   9  827
1477476149.279:   1576  73   9  827
1477476149.287:   1581  73   9  827
1477476149.297:   1611  73   9  827
1477476149.297:   1656  73   9  827
1477476149.297:   1693  73   9  827
1477476149.298:   1700  73   9  827
1477476149.298:   1681  73   9  827
1477476149.298:   1657  73   9  827
1477476149.298:   1635  73   9  827
1477476149.298:   1605  73   9  827
1477476149.298:   1565  73   9  827
1477476149.299:   1528  73   9  827
1477476149.300:   1519  73   9  827
1477476149.303:   1538  73   9  827
1477476149.306:   1564  73   9  827
1477476149.313:   1580  73   9  827
1477476149.338:   1586  73   9  827
1477476149.339:   1586  73   9  827
1477476149.339:   1569  72   9  824
1477476149.340:   1526  72   9  824
1477476149.340:   1466  72   9  824
1477476149.341:   1416  72   9  824
1477476149.341:   1394  72   9  824
1477476149.341:   1383  72   9  824
1477476149.341:   1366  72   9  824
1477476149.342:   1355  72   9  824
1477476149.342:   1378  72   9  824
1477476149.342:   1442  72   9  824
1477476149.342:   1510  72   9  824
1477476149.343:   1539  72   9  824
1477476149.343:   1531  72   9  824
1477476149.343:   1528  72   9  824
1477476149.344:   1564  72   9  824
1477476149.344:   1626  72   9  824
1477476149.344:   1673  72   9  824
1477476149.347:   1678  72   9  824
1477476149.351:   1657  72   9  824
1477476149.351:   1636  72   9  824
1477476149.353:   1628  72   9  824
1477476149.354:   1627  72   9  824
1477476149.372:   1622  72   9  824
1477476149.372:   1613  72   9  824
1477476149.373:   1614  72   9  824
1477476149.373:   1641  72   9  824
1477476149.373:   1701  72   9  824
1477476149.373:   1778  72   9  824
1477476149.374:   1837  72   9  824
1477476149.374:   1859  72   9  824
1477476149.374:   1855  72   9  824
1477476149.375:   1860  72   9  824
1477476149.379:   1890  72   9  824
1477476149.379:   1928  72   9  824
1477476149.381:   1941  72   9  824
1477476149.382:   1931  72   9  824
1477476149.383:   1932  72   9  824
1477476149.386:   1974  72   9  824
1477476149.388:   2038  72   9  824
1477476149.393:   2080  72   9  824
1477476149.393:   2078  72   9  824
1477476149.394:   2056  72   9  824
1477476149.411:   2059  72   9  824
1477476149.412:   2108  72   9  824
1477476149.413:   2184  72   9  824
1477476149.413:   2260  72   9  824
1477476149.414:   2322  72   9  824
1477476149.415:   2368  72   9  824
1477476149.415:   2401  72   9  824
1477476149.416:   2414  72   9  824
1477476149.417:   2411  72   9  824
1477476149.417:   2402  72   9  824
1477476149.419:   2394  72   9  824
1477476149.420:   2389  72   9  824
1477476149.421:   2376  72   9  824
1477476149.422:   2357  72   9  824
1477476149.423:   2344  72   9  824
1477476149.425:   2351  72   9  824
1477476149.435:   2377  72   9  824
1477476149.435:   2407  72   9  824
1477476149.435:   2423  72   9  824
1477476149.435:   2414  72   9  824
1477476149.436:   2380  72   9  824
1477476149.437:   2328  72   9  824
1477476149.439:   2271  72   9  824
1477476149.440:   2221  72   9  824
1477476149.443:   2183  72   9  824
1477476149.447:   2148  72   9  824
1477476149.447:   2102  72   9  824
1477476149.451:   2035  72   9  824
1477476149.453:   1956  72   9  824
1477476149.453:   1887  72   9  824
1477476149.454:   1845  72   9  824
1477476149.457:   1826  72   9  824
1477476149.472:   1813  72   9  824
1477476149.472:   1784  72   9  824
1477476149.472:   1731  72   9  824
1477476149.473:   1657  72   9  824
1477476149.473:   1581  72   9  824
1477476149.473:   1509  72   9  824
1477476149.473:   1435  72   9  824
1477476149.476:   1339  72   9  824
1477476149.476:   1213  72   9  824
1477476149.481:   1073  72   9  824
1477476149.491:    952  72   9  824
1477476149.492:    867  72   9  824
1477476149.492:    810  72   9  824
1477476149.492:    749  72   9  824
1477476149.492:    667  72   9  824
1477476149.492:    573  72   9  824
1477476149.492:    487  72   9  824
1477476149.492:    418  72   9  824
1477476149.494:    350  72   9  824
1477476149.497:    270  72   9  824
1477476149.498:    188  72   9  824
1477476149.503:    128  72   9  824
1477476149.511:    101  72   9  824
1477476149.511:     88  72   9  824
1477476149.511:     60  72   9  824
1477476149.511:      3  72   9  824
1477476149.511:    -79  72   9  824
1477476149.512:   -172  72   9  824
1477476149.516:   -271  72   9  824
1477476149.517:   -375  72   9  824
1477476149.519:   -473  72   9  824
1477476149.520:   -552  72   9  824
1477476149.530:   -596  72   9  824
1477476149.530:   -605  72   9  824
1477476149.530:   -588  72   9  824
1477476149.531:   -564  72   9  824
1477476149.531:   -549  72   9  824
1477476149.532:   -554  72   9  824
1477476149.534:   -581  72   9  824
1477476149.534:   -627  72   9  824
1477476149.537:   -688  72   9  824
1477476149.539:   -755  72   9  824
1477476149.550:   -804  72   9  824
1477476149.550:   -812  72   9  824
1477476149.550:   -777  72   9  824
1477476149.550:   -730  72   9  824
1477476149.550:   -706  72   9  824
1477476149.551:   -708  72   9  824
1477476149.554:   -710  72   9  824
1477476149.558:   -694  72   9  824
1477476149.558:   -675  72   9  824
1477476149.559:   -673  72   9  824
1477476149.562:   -685  72   9  824
1477476149.566:   -687  72   9  824
1477476149.568:   -668  72   9  824
1477476149.569:   -641  72   9  824
1477476149.573:   -621  72   9  824
1477476149.573:   -600  72   9  824
1477476149.574:   -565  72   9  824
1477476149.577:   -527  72   9  824
1477476149.577:   -514  72   9  824
1477476149.578:   -532  72   9  824
1477476149.581:   -550  72   9  824
1477476149.585:   -536  72   9  824
1477476149.595:   -497  72   9  824
1477476149.596:   -473  72   9  824
1477476149.597:   -492  72   9  824
1477476149.597:   -533  72   9  824
1477476149.598:   -559  72   9  824
1477476149.599:   -552  72   9  824
1477476149.600:   -523  72   9  824
1477476149.600:   -496  72   9  824
1477476149.601:   -473  72   9  824
1477476149.602:   -443  72   9  824
1477476149.603:   -399  72   9  824
1477476149.609:   -350  72   9  824
1477476149.618:   -316  72   9  824
1477476149.619:   -304  72   9  824
1477476149.620:   -307  72   9  824
1477476149.621:   -317  72   9  824
1477476149.622:   -330  72   9  824
1477476149.623:   -344  72   9  824
1477476149.624:   -350  72   9  824
1477476149.626:   -336  72   9  824
1477476149.628:   -300  72   9  824
1477476149.628:   -256  72   9  824
1477476149.662:   -226  72   9  824
1477476149.714:   -212  72   9  824
1477476149.727:   -199  72   9  824
1477476149.727:   -180  72   9  824
1477476149.727:   -165  72   9  824
1477476149.728:   -169  72   9  824
1477476149.728:   -190  72   9  824
1477476149.728:   -204  72   9  824
1477476149.728:   -195  72   9  824
1477476149.728:   -178  72   9  824
1477476149.729:   -182  72   9  824
1477476149.729:   -215  72   9  824
1477476149.729:   -253  72   9  824
1477476149.729:   -269  72   9  824
1477476149.729:   -256  72   9  824
1477476149.729:   -233  72   9  824
1477476149.730:   -210  72   9  824
1477476149.730:   -185  72   9  824
1477476149.730:   -153  72   9  824
1477476149.730:   -126  72   9  824
1477476149.731:   -125  72   9  824
1477476149.731:   -156  72   9  824
1477476149.731:   -198  72   9  824
1477476149.731:   -228  72   9  824
1477476149.731:   -243  72   9  824
1477476149.731:   -257  72   9  824
1477476149.731:   -270  72   9  824
1477476149.732:   -260  72   9  824
1477476149.732:   -201  72   9  824
1477476149.732:    -97  72   9  824
1477476149.732:     13  72   9  824
1477476149.732:     88  72   9  824
1477476149.732:    115  72   9  824
1477476149.732:    110  72   9  824
1477476149.733:     96  72   9  824
1477476149.733:     80  72   9  824
1477476149.733:     57  72   9  824
1477476149.733:     23  72   9  824
1477476149.733:    -12  72   9  824
1477476149.733:    -37  72   9  824
1477476149.733:    -50  72   9  824
1477476149.734:    -61  72   9  824
1477476149.734:    -79  72   9  824
1477476149.734:    -98  72   9  824
1477476149.734:   -107  72   9  824
1477476149.734:    -99  72   9  824
1477476149.735:    -82  72   9  824
1477476149.735:    -67  72   9  824
1477476149.736:    -48  72   9  824
1477476149.736:     -9  72   9  824
1477476149.736:     53  72   9  824
1477476149.737:    121  72   9  824
1477476149.737:    165  72   9  824
1477476149.737:    173  72   9  824
1477476149.737:    161  72   9  824
1477476149.737:    149  72   9  824
1477476149.738:    150  72   9  824
1477476149.740:    156  72   9  824
1477476149.741:    165  72   9  824
1477476149.742:    178  72   9  824
1477476149.773:    195  72   9  824
1477476149.773:    207  72   9  824
1477476149.774:    202  72   9  824
1477476149.774:    178  72   9  824
1477476149.774:    148  72   9  824
1477476149.774:    122  72   9  824
1477476149.774:     99  72   9  824
1477476149.775:     71  72   9  824
1477476149.775:     40  72   9  824
1477476149.775:     14  72   9  824
1477476149.775:     -2  72   9  824
1477476149.775:     -9  72   9  824
1477476149.776:    -13  72   9  824
1477476149.776:    -16  72   9  824
1477476149.776:    -13  72   9  824
1477476149.776:     -6  72   9  824
1477476149.777:     -1  72   9  824
1477476149.777:      4  72   9  824
1477476149.782:     20  72   9  824
1477476149.782:     55  72   9  824
1477476149.786:    103  72   9  824
1477476149.786:    138  72   9  824
1477476149.788:    141  72   9  824
1477476149.790:    114  72   9  824
1477476149.799:     80  72   9  824
1477476149.799:     57  72   9  824
1477476149.799:     44  72   9  824
1477476149.800:     33  72   9  824
1477476149.800:     22  72   9  824
1477476149.802:     20  72   9  824
1477476149.807:     34  72   9  824
1477476149.808:     56  72   9  824
1477476149.818:     66  72   9  824
1477476149.818:     49  72   9  824
1477476149.819:     14  72   9  824
1477476149.819:    -22  72   9  824
1477476149.819:    -46  72   9  824
1477476149.820:    -56  72   9  824
1477476149.821:    -51  72   9  824
1477476149.824:    -25  72   9  824
1477476149.824:     29  72   9  824
1477476149.825:    100  72   9  824
1477476149.827:    161  72   9  824
1477476149.829:    192  72   9  824
1477476149.831:    194  72   9  824
1477476149.832:    180  72   9  824
1477476149.839:    159  72   9  824
1477476149.839:    129  72   9  824
1477476149.839:     90  72   9  824
1477476149.840:     50  72   9  824
1477476149.849:     22  72   9  824
1477476149.854:     17  72   9  824
1477476149.867:     34  72   9  824
1477476149.868:     65  72   9  824
1477476149.868:     98  72   9  824
1477476149.868:    126  72   9  824
1477476149.869:    154  72   9  824
1477476149.869:    195  72   9  824
1477476149.870:    253  72   9  824
1477476149.870:    308  72   9  824
1477476149.870:    333  72   9  824
1477476149.872:    326  72   9  824
1477476149.872:    316  72   9  824
1477476149.872:    328  72   9  824
1477476149.873:    349  72   9  824
1477476149.873:    338  72   9  824
1477476149.879:    290  72   9  824
1477476149.880:    242  72   9  824
1477476149.886:    239  72   9  824
1477476149.887:    285  72   9  824
1477476149.888:    339  72   9  824
1477476149.889:    361  72   9  824
1477476149.890:    349  72   9  824
1477476149.891:    331  72   9  824
1477476149.892:    324  72   9  824
1477476149.892:    316  72   9  824
1477476149.896:    287  72   9  824
1477476149.897:    238  72   9  824
1477476149.900:    193  72   9  824
1477476149.902:    174  72   9  824
1477476149.902:    184  72   9  824
1477476149.906:    206  72   9  824
1477476149.906:    221  72   9  824
1477476149.908:    222  72   9  824
1477476149.911:    211  72   9  824
1477476149.911:    193  72   9  824
1477476149.923:    165  72   9  824
1477476149.924:    131  72   9  824
1477476149.924:     99  72   9  824
1477476149.925:     81  72   9  824
1477476149.930:     82  72   9  824
1477476149.932:     92  72   9  824
1477476149.955:     97  72   9  824
1477476149.955:     97  72   9  824
1477476149.956:    100  72   9  824
1477476149.956:    115  72   9  824
1477476149.956:    126  72   9  824
1477476149.956:    112  72   9  824
1477476149.957:     64  72   9  824
1477476149.957:      6  72   9  824
1477476149.957:    -27  72   9  824
1477476149.957:    -15  72   9  824
1477476149.957:     23  72   9  824
1477476149.958:     48  72   9  824
1477476149.958:     40  72   9  824
1477476149.958:      9  72   9  824
1477476149.958:    -14  72   9  824
1477476149.958:     -6  72   9  824
1477476149.959:     38  72   9  824
1477476149.962:    119  72   9  824
1477476149.962:    235  72   9  824
1477476149.965:    371  72   9  824
1477476149.965:    508  72   9  824
1477476149.966:    639  72   9  824
1477476149.969:    774  72   9  824
1477476149.973:    934  72   9  824
1477476149.973:   1119  72   9  824
1477476149.974:   1317  72   9  824
1477476149.978:   1514  72   9  824
1477476149.978:   1717  72   9  824
1477476149.980:   1952  72   9  824
1477476149.981:   2252  72   9  824
1477476149.995:   2631  72   9  824
1477476149.995:   3073  72   9  824
1477476149.996:   3505  72   9  824
1477476149.996:   3820  72   9  824
1477476149.997:   3947  72   9  824
1477476149.998:   3892  72   9  824
1477476149.998:   3696  72   9  824
1477476150.001:   3324  72   9  824
1477476150.005:   2626  72   9  824
1477476150.006:   1467  72   9  824
1477476150.015:    -99  72   9  824
1477476150.017:  -1798  72   9  824
1477476150.018:  -3337  72   9  824
1477476150.019:  -4623  72   9  824
1477476150.019:  -5759  72   9  824
1477476150.020:  -6824  72   9  824
1477476150.021:  -7697  72   9  824
1477476150.022:  -8141  72   9  824
1477476150.022:  -8037  72   9  824
1477476150.023:  -7522  72   9  824
1477476150.035:  -6867  72   9  824
1477476150.036:  -6251  72   9  824
1477476150.036:  -5685  72   9  824
1477476150.037:  -5115  72   9  824
1477476150.037:  -4554  72   9  824
1477476150.039:  -4090  72   9  824
1477476150.040:  -3779  72   9  824
1477476150.040:  -3582  72   9  824
1477476150.041:  -3389  72   9  824
1477476150.043:  -3111  72   9  824
1477476150.054:  -2733  72   9  824
1477476150.056:  -2298  72   9  824
1477476150.057:  -1850  72   9  824
1477476150.057:  -1398  72   9  824
1477476150.058:   -928  72   9  824
1477476150.058:   -441  72   9  824
1477476150.059:     17  72   9  824
1477476150.060:    376  72   9  824
1477476150.060:    595  72   9  824
1477476150.061:    695  72   9  824
1477476150.072:    748  72   9  824
1477476150.073:    813  72   9  824
1477476150.073:    891  72   9  824
1477476150.074:    945  72   9  824
1477476150.074:    948  72   9  824
1477476150.075:    917  72   9  824
1477476150.075:    897  72   9  824
1477476150.079:    918  72   9  824
1477476150.089:    968  72   9  824
1477476150.091:   1021  72   9  824
1477476150.092:   1064  72   9  824
1477476150.093:   1104  72   9  824
1477476150.094:   1147  72   9  824
1477476150.095:   1181  72   9  824
1477476150.096:   1187  72   9  824
1477476150.097:   1168  72   9  824
1477476150.108:   1154  72   9  824
1477476150.108:   1175  72   9  824
1477476150.109:   1231  72   9  824
1477476150.109:   1299  72   9  824
1477476150.109:   1361  72   9  824
1477476150.109:   1415  72   9  824
1477476150.110:   1458  72   9  824
1477476150.111:   1473  72   9  824
1477476150.111:   1440  72   9  824
1477476150.113:   1361  72   9  824
1477476150.114:   1263  72   9  824
1477476150.115:   1182  72   9  824
1477476150.125:   1136  72   9  824
1477476150.126:   1119  72   9  824
1477476150.126:   1114  72   9  824
1477476150.128:   1109  72   9  824
1477476150.129:   1101  72   9  824
1477476150.131:   1092  73   9  822
1477476150.132:   1084  73   9  822
1477476150.133:   1078  73   9  822
1477476150.143:   1067  73   9  822
1477476150.144:   1043  73   9  822
1477476150.144:   1010  73   9  822
1477476150.145:    984  73   9  822
1477476150.145:    983  73   9  822
1477476150.148:   1007  73   9  822
1477476150.149:   1040  73   9  822
1477476150.149:   1064  73   9  822
1477476150.160:   1075  73   9  822
1477476150.161:   1081  73   9  822
1477476150.161:   1096  73   9  822
1477476150.161:   1127  73   9  822
1477476150.162:   1169  73   9  822
1477476150.163:   1204  73   9  822
1477476150.164:   1221  73   9  822
1477476150.166:   1223  73   9  822
1477476150.167:   1227  73   9  822
1477476150.168:   1246  73   9  822
1477476150.179:   1272  73   9  822
1477476150.179:   1286  73   9  822
1477476150.179:   1280  73   9  822
1477476150.180:   1262  73   9  822
1477476150.190:   1249  73   9  822
1477476150.194:   1243  73   9  822
1477476150.196:   1235  73   9  822
1477476150.199:   1230  73   9  822
1477476150.200:   1242  73   9  822
1477476150.200:   1279  73   9  822
1477476150.201:   1322  73   9  822
1477476150.202:   1340  73   9  822
1477476150.203:   1326  73   9  822
1477476150.203:   1306  73   9  822
1477476150.216:   1315  73   9  822
1477476150.217:   1366  73   9  822
1477476150.218:   1442  73   9  822
1477476150.218:   1520  73   9  822
1477476150.219:   1587  73   9  822
1477476150.221:   1639  73   9  822
1477476150.232:   1670  73   9  822
1477476150.233:   1677  73   9  822
1477476150.233:   1665  73   9  822
1477476150.234:   1645  73   9  822
1477476150.234:   1634  73   9  822
1477476150.235:   1643  73   9  822
1477476150.236:   1669  73   9  822
1477476150.236:   1702  73   9  822
1477476150.237:   1727  73   9  822
1477476150.238:   1744  73   9  822
1477476150.250:   1760  73   9  822
1477476150.251:   1783  73   9  822
1477476150.252:   1804  73   9  822
1477476150.253:   1799  73   9  822
1477476150.267:   1750  73   9  822
1477476150.268:   1669  73   9  822
1477476150.268:   1587  73   9  822
1477476150.268:   1535  73   9  822
1477476150.268:   1520  73   9  822
1477476150.268:   1524  73   9  822
1477476150.268:   1519  73   9  822
1477476150.268:   1489  73   9  822
1477476150.269:   1438  73   9  822
1477476150.269:   1388  73   9  822
1477476150.269:   1366  73   9  822
1477476150.269:   1384  73   9  822
1477476150.269:   1421  73   9  822
1477476150.269:   1441  73   9  822
1477476150.269:   1415  73   9  822
1477476150.270:   1342  73   9  822
1477476150.271:   1246  73   9  822
1477476150.272:   1147  73   9  822
1477476150.273:   1048  73   9  822
1477476150.276:    941  73   9  822
1477476150.276:    819  73   9  822
1477476150.278:    701  73   9  822
1477476150.307:    614  73   9  822
1477476150.307:    567  73   9  822
1477476150.309:    546  73   9  822
1477476150.310:    529  73   9  822
1477476150.311:    508  73   9  822
1477476150.313:    484  73   9  822
1477476150.314:    452  73   9  822
1477476150.314:    392  73   9  822
1477476150.314:    288  73   9  822
1477476150.315:    153  73   9  822
1477476150.315:     26  73   9  822
1477476150.315:    -60  73   9  822
1477476150.326:   -102  73   9  822
1477476150.326:   -126  73   9  822
1477476150.326:   -154  73   9  822
1477476150.327:   -191  73   9  822
1477476150.327:   -225  73   9  822
1477476150.327:   -250  73   9  822
1477476150.327:   -273  73   9  822
1477476150.327:   -301  73   9  822
1477476150.327:   -338  73   9  822
1477476150.328:   -381  73   9  822
1477476150.328:   -425  73   9  822
1477476150.328:   -460  73   9  822
1477476150.329:   -481  73   9  822
1477476150.332:   -490  73   9  822
1477476150.332:   -499  73   9  822
1477476150.333:   -518  73   9  822
1477476150.335:   -549  73   9  822
1477476150.336:   -573  73   9  822
1477476150.347:   -573  73   9  822
1477476150.347:   -546  73   9  822
1477476150.347:   -515  73   9  822
1477476150.347:   -508  73   9  822
1477476150.347:   -525  73   9  822
1477476150.348:   -546  73   9  822
1477476150.351:   -550  73   9  822
1477476150.352:   -548  73   9  822
1477476150.355:   -562  73   9  822
1477476150.359:   -603  73   9  822
1477476150.366:   -650  73   9  822
1477476150.367:   -672  73   9  822
1477476150.368:   -660  73   9  822
1477476150.369:   -636  73   9  822
1477476150.369:   -623  73   9  822
1477476150.371:   -624  73   9  822
1477476150.384:   -631  73   9  822
1477476150.384:   -639  73   9  822
1477476150.384:   -655  73   9  822
1477476150.384:   -679  73   9  822
1477476150.384:   -689  73   9  822
1477476150.385:   -666  73   9  822
1477476150.385:   -614  73   9  822
1477476150.387:   -564  73   9  822
1477476150.387:   -541  73   9  822
1477476150.389:   -538  73   9  822
1477476150.390:   -528  73   9  822
1477476150.391:   -494  73   9  822
1477476150.393:   -450  73   9  822
1477476150.397:   -423  73   9  822
1477476150.406:   -418  73   9  822
1477476150.406:   -413  73   9  822
1477476150.406:   -382  73   9  822
1477476150.406:   -327  73   9  822
1477476150.407:   -273  73   9  822
1477476150.407:   -241  73   9  822
1477476150.408:   -223  73   9  822
1477476150.411:   -194  73   9  822
1477476150.415:   -147  73   9  822
1477476150.415:   -102  73   9  822
1477476150.426:    -82  73   9  822
1477476150.426:    -84  73   9  822
1477476150.426:    -83  73   9  822
1477476150.426:    -52  73   9  822
1477476150.426:      0  73   9  822
1477476150.427:     44  73   9  822
1477476150.428:     52  73   9  822
1477476150.433:     30  73   9  822
1477476150.502:     -2  73   9  822
1477476150.502:    -25  73   9  822
1477476150.502:    -35  73   9  822
1477476150.503:    -33  73   9  822
1477476150.503:    -19  73   9  822
1477476150.504:      6  73   9  822
1477476150.504:     37  73   9  822
1477476150.504:     69  73   9  822
1477476150.505:    100  73   9  822
1477476150.505:    135  73   9  822
1477476150.505:    165  73   9  822
1477476150.505:    172  73   9  822
1477476150.506:    146  73   9  822
1477476150.506:    103  73   9  822
1477476150.507:     80  73   9  822
1477476150.507:     96  73   9  822
1477476150.507:    132  73   9  822
1477476150.507:    156  73   9  822
1477476150.508:    157  73   9  822
1477476150.508:    156  73   9  822
1477476150.509:    177  73   9  822
1477476150.509:    210  73   9  822
1477476150.510:    225  73   9  822
1477476150.511:    200  73   9  822
1477476150.511:    150  73   9  822
1477476150.511:    114  73   9  822
1477476150.511:    121  73   9  822
1477476150.512:    166  73   9  822
1477476150.512:    217  73   9  822
1477476150.513:    243  73   9  822
1477476150.513:    238  73   9  822
1477476150.513:    220  73   9  822
1477476150.513:    214  73   9  822
1477476150.513:    224  73   9  822
1477476150.514:    232  73   9  822
1477476150.514:    218  73   9  822
1477476150.515:    185  73   9  822
1477476150.515:    153  73   9  822
1477476150.515:    130  73   9  822
1477476150.515:    106  73   9  822
1477476150.515:     71  73   9  822
1477476150.516:     31  73   9  822
1477476150.516:     10  73   9  822
1477476150.520:     20  73   9  822
1477476150.521:     51  73   9  822
1477476150.521:     83  73   9  822
1477476150.529:    109  73   9  822
1477476150.530:    134  73   9  822
1477476150.552:    156  73   9  822
1477476150.552:    168  73   9  822
1477476150.553:    169  73   9  822
1477476150.553:    169  73   9  822
1477476150.554:    177  73   9  822
1477476150.557:    189  73   9  822
1477476150.557:    197  73   9  822
1477476150.557:    206  73   9  822
1477476150.557:    237  73   9  822
1477476150.558:    292  73   9  822
1477476150.558:    345  73   9  822
1477476150.559:    362  73   9  822
1477476150.559:    339  73   9  822
1477476150.561:    296  73   9  822
1477476150.561:    251  73   9  822
1477476150.562:    209  73   9  822
1477476150.563:    175  73   9  822
1477476150.564:    160  73   9  822
1477476150.566:    171  73   9  822
1477476150.566:    192  73   9  822
1477476150.567:    202  73   9  822
1477476150.570:    196  73   9  822
1477476150.579:    195  73   9  822
1477476150.579:    205  73   9  822
1477476150.579:    207  73   9  822
1477476150.579:    184  73   9  822
1477476150.579:    157  73   9  822
1477476150.580:    172  73   9  822
1477476150.582:    243  73   9  822
1477476150.583:    334  73   9  822
1477476150.587:    401  73   9  822
1477476150.587:    436  73   9  822
1477476150.598:    467  73   9  822
1477476150.598:    506  73   9  822
1477476150.598:    528  73   9  822
1477476150.598:    497  73   9  822
1477476150.598:    419  73   9  822
1477476150.601:    334  73   9  822
1477476150.602:    278  73   9  822
1477476150.603:    249  73   9  822
1477476150.604:    228  73   9  822
1477476150.609:    205  73   9  822
1477476150.610:    189  73   9  822
1477476150.611:    195  73   9  822
1477476150.615:    215  73   9  822
1477476150.616:    230  73   9  822
1477476150.617:    228  73   9  822
1477476150.618:    221  73   9  822
1477476150.621:    231  73   9  822
1477476150.623:    262  73   9  822
1477476150.635:    290  73   9  822
1477476150.639:    293  73   9  822
1477476150.640:    266  73   9  822
1477476150.640:    231  73   9  822
1477476150.647:    207  73   9  822
1477476150.647:    190  73   9  822
1477476150.665:    168  73   9  822
1477476150.665:    141  73   9  822
1477476150.665:    120  73   9  822
1477476150.666:    110  73   9  822
1477476150.666:    105  73   9  822
1477476150.666:    105  73   9  822
1477476150.666:    119  73   9  822
1477476150.666:    154  73   9  822
1477476150.667:    191  73   9  822
1477476150.667:    207  73   9  822
1477476150.667:    201  73   9  822
1477476150.667:    198  73   9  822
1477476150.667:    216  73   9  822
1477476150.668:    243  73   9  822
1477476150.668:    258  73   9  822
1477476150.670:    256  73   9  822
1477476150.670:    256  73   9  822
1477476150.673:    263  73   9  822
1477476150.673:    262  73   9  822
1477476150.675:    236  73   9  822
1477476150.679:    196  73   9  822
1477476150.681:    173  73   9  822
1477476150.692:    186  73   9  822
1477476150.693:    221  73   9  822
1477476150.694:    247  73   9  822
1477476150.695:    254  73   9  822
1477476150.696:    260  73   9  822
1477476150.697:    290  73   9  822
1477476150.697:    341  73   9  822
1477476150.698:    386  73   9  822
1477476150.699:    410  73   9  822
1477476150.699:    430  73   9  822
1477476150.712:    473  73   9  822
1477476150.713:    549  73   9  822
1477476150.714:    625  73   9  822
1477476150.714:    660  73   9  822
1477476150.716:    634  73   9  822
1477476150.717:    569  73   9  822
1477476150.717:    494  73   9  822
1477476150.718:    425  73   9  822
1477476150.718:    364  73   9  822
1477476150.722:    316  73   9  822
1477476150.731:    283  73   9  822
1477476150.732:    269  73   9  822
1477476150.733:    277  73   9  822
1477476150.734:    311  73   9  822
1477476150.734:    365  73   9  822
1477476150.736:    417  73   9  822
1477476150.737:    437  73   9  822
1477476150.737:    413  73   9  822
1477476150.738:    369  73   9  822
1477476150.738:    339  73   9  822
1477476150.751:    330  73   9  822
1477476150.752:    320  73   9  822
1477476150.753:    295  73   9  822
1477476150.753:    267  73   9  822
1477476150.754:    260  73   9  822
1477476150.755:    277  73   9  822
1477476150.756:    293  73   9  822
1477476150.757:    277  73   9  822
1477476150.757:    228  73   9  822
1477476150.759:    176  73   9  822
1477476150.762:    156  73   9  822
1477476150.762:    177  73   9  822
1477476150.764:    218  73   9  822
1477476150.765:    245  73   9  822
1477476150.766:    245  73   9  822
1477476150.768:    230  73   9  822
1477476150.771:    222  73   9  822
1477476150.775:    224  73   9  822
1477476150.775:    220  73   9  822
1477476150.777:    208  73   9  822
1477476150.798:    218  73   9  822
1477476150.798:    286  73   9  822
1477476150.799:    416  73   9  822
1477476150.800:    571  73   9  822
1477476150.801:    718  73   9  822
1477476150.801:    860  73   9  822
1477476150.801:   1022  73   9  822
1477476150.802:   1201  73   9  822
1477476150.802:   1364  73   9  822
1477476150.803:   1501  73   9  822
1477476150.803:   1652  73   9  822
1477476150.804:   1854  73   9  822
1477476150.805:   2100  73   9  822
1477476150.805:   2359  73   9  822
1477476150.807:   2642  73   9  822
1477476150.808:   2993  73   9  822
1477476150.819:   3407  73   9  822
1477476150.820:   3765  73   9  822
1477476150.822:   3922  73   9  822
1477476150.823:   3856  73   9  822
1477476150.823:   3664  73   9  822
1477476150.824:   3401  73   9  822
1477476150.825:   2942  73   9  822
1477476150.825:   2068  73   9  822
1477476150.826:    716  73   9  822
1477476150.831:   -905  73   9  822
1477476150.837:  -2467  73   9  822
1477476150.838:  -3781  73   9  822
1477476150.839:  -4888  73   9  822
1477476150.839:  -5899  73   9  822
1477476150.840:  -6786  73   9  822
1477476150.841:  -7366  73   9  822
1477476150.844:  -7482  73   9  822
1477476150.844:  -7158  73   9  822
1477476150.846:  -6579  73   9  822
1477476150.847:  -5936  73   9  822
1477476150.883:  -5318  73   9  822
1477476150.884:  -4740  73   9  822
1477476150.885:  -4231  73   9  822
1477476150.886:  -3844  73   9  822
1477476150.889:  -3584  73   9  822
1477476150.892:  -3372  73   9  822
1477476150.892:  -3104  73   9  822
1477476150.894:  -2753  73   9  822
1477476150.895:  -2375  73   9  822
1477476150.895:  -2022  73   9  822
1477476150.896:  -1665  73   9  822
1477476150.897:  -1226  73   9  822
1477476150.927:   -694  73   9  822
1477476150.927:   -157  73   9  822
1477476150.928:    273  73   9  822
1477476150.928:    559  73   9  822
1477476150.929:    737  73   9  822
1477476150.929:    849  73   9  822
1477476150.929:    902  73   9  822
1477476150.930:    903  73   9  822
1477476150.930:    889  73   9  822
1477476150.930:    908  73   9  822
1477476150.931:    964  73   9  822
1477476150.931:   1014  73   9  822
1477476150.931:   1030  73   9  822
1477476150.931:   1034  73   9  822
1477476150.932:   1069  73   9  822
1477476150.932:   1142  73   9  822
1477476150.932:   1220  73   9  822
1477476150.932:   1270  73   9  822
1477476150.933:   1292  73   9  822
1477476150.933:   1315  73   9  822
1477476150.933:   1349  73   9  822
1477476150.933:   1372  73   9  822
1477476150.934:   1363  73   9  822
1477476150.934:   1330  73   9  822
1477476150.935:   1311  73   9  822
1477476150.935:   1332  73   9  822
1477476150.946:   1382  73   9  822
1477476150.947:   1420  73   9  822
1477476150.947:   1416  73   9  822
1477476150.947:   1371  73   9  822
1477476150.947:   1316  73   9  822
1477476150.947:   1274  73   9  822
1477476150.947:   1249  73   9  822
1477476150.947:   1230  73   9  822
1477476150.948:   1220  73   9  820
1477476150.948:   1233  73   9  820
1477476150.948:   1277  73   9  820
1477476150.948:   1334  73   9  820
1477476150.948:   1372  73   9  820
1477476150.949:   1372  73   9  820
1477476150.952:   1350  73   9  820
1477476150.953:   1333  73   9  820
1477476150.958:   1332  73   9  820
1477476150.958:   1333  73   9  820
1477476150.959:   1324  73   9  820
1477476150.960:   1313  73   9  820
1477476150.970:   1331  73   9  820
1477476150.970:   1393  73   9  820
1477476150.971:   1481  73   9  820
1477476150.971:   1552  73   9  820
1477476150.971:   1580  73   9  820
1477476150.972:   1569  73   9  820
1477476150.974:   1543  73   9  820
1477476150.976:   1526  73   9  820
1477476150.978:   1522  73   9  820
1477476150.980:   1523  73   9  820
1477476150.981:   1520  73   9  820
1477476150.988:   1508  73   9  820
1477476150.994:   1496  73   9  820
1477476150.994:   1497  73   9  820
1477476150.994:   1512  73   9  820
1477476150.994:   1527  73   9  820
1477476150.995:   1524  73   9  820
1477476150.995:   1509  73   9  820
1477476150.998:   1512  73   9  820
1477476150.999:   1561  73   9  820
1477476151.002:   1641  73   9  820
1477476151.003:   1715  73   9  820
1477476151.006:   1759  73   9  820
1477476151.008:   1792  73   9  820
1477476151.017:   1849  73   9  820
1477476151.018:   1935  73   9  820
1477476151.018:   2018  73   9  820
1477476151.018:   2065  73   9  820
1477476151.019:   2082  73   9  820
1477476151.019:   2100  73   9  820
1477476151.021:   2135  73   9  820
1477476151.022:   2172  73   9  820
1477476151.027:   2192  73   9  820
1477476151.027:   2198  73   9  820
1477476151.029:   2206  73   9  820
1477476151.030:   2221  73   9  820
1477476151.034:   2228  73   9  820
1477476151.036:   2228  73   9  820
1477476151.054:   2243  73   9  820
1477476151.054:   2293  73   9  820
1477476151.054:   2369  73   9  820
1477476151.055:   2437  73   9  820
1477476151.055:   2473  73   9  820
1477476151.055:   2488  73   9  820
1477476151.055:   2498  73   9  820
1477476151.055:   2506  73   9  820
1477476151.056:   2496  73   9  820
1477476151.056:   2465  73   9  820
1477476151.058:   2432  73   9  820
1477476151.059:   2415  73   9  820
1477476151.060:   2412  73   9  820
1477476151.066:   2410  73   9  820
1477476151.066:   2406  73   9  820
1477476151.069:   2412  73   9  820
1477476151.069:   2426  73   9  820
1477476151.071:   2430  73   9  820
1477476151.072:   2404  73   9  820
1477476151.075:   2355  73   9  820
1477476151.077:   2303  73   9  820
1477476151.078:   2263  73   9  820
1477476151.082:   2227  73   9  820
1477476151.082:   2186  73   9  820
1477476151.095:   2132  73   9  820
1477476151.096:   2077  73   9  820
1477476151.096:   2027  73   9  820
1477476151.096:   1979  73   9  820
1477476151.096:   1921  73   9  820
1477476151.096:   1850  73   9  820
1477476151.096:   1768  73   9  820
1477476151.097:   1686  73   9  820
1477476151.099:   1613  73   9  820
1477476151.102:   1552  73   9  820
1477476151.104:   1497  73   9  820
1477476151.105:   1446  73   9  820
1477476151.109:   1394  73   9  820
1477476151.110:   1336  73   9  820
1477476151.123:   1260  73   9  820
1477476151.123:   1162  73   9  820
1477476151.123:   1047  73   9  820
1477476151.123:    929  73   9  820
1477476151.124:    818  73   9  820
1477476151.124:    713  73   9  820
1477476151.124:    611  73   9  820
1477476151.125:    510  73   9  820
1477476151.128:    410  73   9  820
1477476151.129:    316  73   9  820
1477476151.131:    233  73   9  820
1477476151.132:    164  73   9  820
1477476151.156:    106  73   9  820
1477476151.156:     58  73   9  820
1477476151.156:     15  73   9  820
1477476151.156:    -17  73   9  820
1477476151.157:    -32  73   9  820
1477476151.157:    -30  73   9  820
1477476151.157:    -28  73   9  820
1477476151.157:    -44  73   9  820
1477476151.158:    -81  73   9  820
1477476151.159:   -128  73   9  820
1477476151.160:   -175  73   9  820
1477476151.160:   -214  73   9  820
1477476151.160:   -239  73   9  820
1477476151.160:   -244  73   9  820
1477476151.163:   -227  73   9  820
1477476151.164:   -202  73   9  820
1477476151.168:   -187  73   9  820
1477476151.168:   -186  73   9  820
1477476151.184:   -184  73   9  820
1477476151.184:   -173  73   9  820
1477476151.185:   -167  73   9  820
1477476151.186:   -188  73   9  820
1477476151.186:   -225  73   9  820
1477476151.186:   -242  73   9  820
1477476151.186:   -216  73   9  820
1477476151.187:   -170  73   9  820
1477476151.187:   -148  73   9  820
1477476151.188:   -169  73   9  820
1477476151.190:   -202  73   9  820
1477476151.191:   -214  73   9  820
1477476151.195:   -205  73   9  820
1477476151.196:   -209  73   9  820
1477476151.204:   -247  73   9  820
1477476151.204:   -296  73   9  820
1477476151.204:   -315  73   9  820
1477476151.205:   -292  73   9  820
1477476151.206:   -249  73   9  820
1477476151.208:   -211  73   9  820
1477476151.210:   -187  73   9  820
1477476151.211:   -169  73   9  820
1477476151.213:   -156  73   9  820
1477476151.218:   -152  73   9  820
1477476151.226:   -155  73   9  820
1477476151.227:   -150  73   9  820
1477476151.227:   -125  73   9  820
1477476151.227:    -88  73   9  820
1477476151.227:    -58  73   9  820
1477476151.227:    -48  73   9  820
1477476151.232:    -61  73   9  820
1477476151.232:    -89  73   9  820
1477476151.234:   -119  73   9  820
1477476151.235:   -139  73   9  820
1477476151.238:   -140  73   9  820
1477476151.239:   -124  73   9  820
1477476151.240:    -95  73   9  820
1477476151.245:    -59  73   9  820
1477476151.253:    -19  73   9  820
1477476151.342:     22  73   9  820
1477476151.342:     62  73   9  820
1477476151.342:     96  73   9  820
1477476151.342:    117  73   9  820
1477476151.343:    121  73   9  820
1477476151.343:    110  73   9  820
1477476151.343:     96  73   9  820
1477476151.344:     94  73   9  820
1477476151.344:    108  73   9  820
1477476151.344:    127  73   9  820
1477476151.344:    139  73   9  820
1477476151.344:    148  73   9  820
1477476151.344:    160  73   9  820
1477476151.344:    166  73   9  820
1477476151.344:    147  73   9  820
1477476151.345:    109  73   9  820
1477476151.345:     86  73   9  820
1477476151.345:    106  73   9  820
1477476151.345:    158  73   9  820
1477476151.345:    195  73   9  820
1477476151.345:    185  73   9  820
1477476151.345:    141  73   9  820
1477476151.346:     99  73   9  820
1477476151.347:     71  73   9  820
1477476151.347:     41  73   9  820
1477476151.348:     -5  73   9  820
1477476151.348:    -51  73   9  820
1477476151.348:    -72  73   9  820
1477476151.349:    -66  73   9  820
1477476151.349:    -52  73   9  820
1477476151.349:    -42  73   9  820
1477476151.349:    -27  73   9  820
1477476151.349:      2  73   9  820
1477476151.349:     33  73   9  820
1477476151.349:     45  73   9  820
1477476151.350:     27  73   9  820
1477476151.350:      1  73   9  820
1477476151.350:    -11  73   9  820
1477476151.350:     -3  73   9  820
1477476151.351:      7  73   9  820
1477476151.352:      6  73   9  820
1477476151.352:     -8  73   9  820
1477476151.352:    -33  73   9  820
1477476151.352:    -62  73   9  820
1477476151.352:    -89  73   9  820
1477476151.352:    -96  73   9  820
1477476151.353:    -70  73   9  820
1477476151.353:    -18  73   9  820
1477476151.353:     31  73   9  820
1477476151.353:     59  73   9  820
1477476151.353:     81  73   9  820
1477476151.353:    119  73   9  820
1477476151.354:    172  73   9  820
1477476151.354:    206  73   9  820
1477476151.356:    190  73   9  820
1477476151.356:    135  73   9  820
1477476151.357:     90  73   9  820
1477476151.359:     89  73   9  820
1477476151.360:    123  73   9  820
1477476151.379:    157  73   9  820
1477476151.379:    174  73   9  820
1477476151.379:    184  73   9  820
1477476151.380:    204  73   9  820
1477476151.380:    230  73   9  820
1477476151.380:    244  73   9  820
1477476151.380:    239  73   9  820
1477476151.380:    225  73   9  820
1477476151.381:    217  73   9  820
1477476151.383:    219  73   9  820
1477476151.383:    226  73   9  820
1477476151.385:    234  73   9  820
1477476151.386:    238  73   9  820
1477476151.387:    236  73   9  820
1477476151.390:    225  73   9  820
1477476151.392:    203  73   9  820
1477476151.403:    171  73   9  820
1477476151.403:    130  73   9  820
1477476151.403:     88  73   9  820
1477476151.403:     63  73   9  820
1477476151.404:     71  73   9  820
1477476151.404:    108  73   9  820
1477476151.406:    151  73   9  820
1477476151.410:    170  73   9  820
1477476151.411:    167  73   9  820
1477476151.412:    168  73   9  820
1477476151.414:    195  73   9  820
1477476151.416:    236  73   9  820
1477476151.428:    256  73   9  820
1477476151.428:    241  73   9  820
1477476151.429:    216  73   9  820
1477476151.429:    217  73   9  820
1477476151.429:    253  73   9  820
1477476151.429:    297  73   9  820
1477476151.431:    316  73   9  820
1477476151.432:    311  73   9  820
1477476151.434:    306  73   9  820
1477476151.438:    322  73   9  820
1477476151.439:    353  73   9  820
1477476151.440:    378  73   9  820
1477476151.450:    390  73   9  820
1477476151.452:    411  73   9  820
1477476151.452:    461  73   9  820
1477476151.452:    528  73   9  820
1477476151.453:    570  73   9  820
1477476151.453:    553  73   9  820
1477476151.457:    495  73   9  820
1477476151.480:    446  73   9  820
1477476151.488:    438  73   9  820
1477476151.489:    460  73   9  820
1477476151.489:    478  73   9  820
1477476151.493:    481  73   9  820
1477476151.493:    490  73   9  820
1477476151.494:    521  73   9  820
1477476151.494:    564  73   9  820
1477476151.494:    598  73   9  820
1477476151.494:    625  73   9  820
1477476151.494:    664  73   9  820
1477476151.494:    720  73   9  820
1477476151.494:    776  73   9  820
1477476151.494:    815  73   9  820
1477476151.495:    847  73   9  820
1477476151.495:    892  73   9  820
1477476151.495:    949  73   9  820
1477476151.495:    995  73   9  820
1477476151.497:   1012  73   9  820
1477476151.497:   1011  73   9  820
1477476151.497:   1013  73   9  820
1477476151.497:   1030  73   9  820
1477476151.497:   1057  73   9  820
1477476151.500:   1092  73   9  820
1477476151.503:   1144  73   9  820
1477476151.507:   1216  73   9  820
1477476151.507:   1290  73   9  820
1477476151.509:   1340  73   9  820
1477476151.510:   1352  73   9  820
1477476151.511:   1332  73   9  820
1477476151.514:   1299  73   9  820
1477476151.527:   1268  73   9  820
1477476151.528:   1250  73   9  820
1477476151.528:   1248  73   9  820
1477476151.528:   1257  73   9  820
1477476151.529:   1262  73   9  820
1477476151.529:   1252  73   9  820
1477476151.532:   1232  73   9  820
1477476151.533:   1216  73   9  820
1477476151.535:   1207  73   9  820
1477476151.535:   1189  73   9  820
1477476151.536:   1150  73   9  820
1477476151.538:   1098  73   9  820
1477476151.539:   1060  73   9  820
1477476151.541:   1056  73   9  820
1477476151.552:   1079  73   9  820
1477476151.553:   1108  73   9  820
1477476151.553:   1127  73   9  820
1477476151.553:   1138  73   9  820
1477476151.553:   1148  73   9  820
1477476151.558:   1153  73   9  820
1477476151.558:   1141  73   9  820
1477476151.558:   1111  73   9  820
1477476151.586:   1080  73   9  820
1477476151.586:   1069  73   9  820
1477476151.593:   1086  73   9  820
1477476151.593:   1110  73   9  820
1477476151.593:   1116  73   9  820
1477476151.593:   1103  73   9  820
1477476151.593:   1089  73   9  820
1477476151.593:   1089  73   9  820
1477476151.594:   1097  73   9  820
1477476151.594:   1093  73   9  820
1477476151.594:   1072  73   9  820
1477476151.594:   1051  73   9  820
1477476151.594:   1053  73   9  820
1477476151.594:   1078  73   9  820
1477476151.594:   1101  73   9  820
1477476151.594:   1099  73   9  820
1477476151.595:   1083  73   9  820
1477476151.596:   1080  73   9  820
1477476151.599:   1105  73   9  820
1477476151.599:   1134  73   9  820
1477476151.600:   1138  73   9  820
1477476151.603:   1113  73   9  820
1477476151.603:   1101  73   9  820
1477476151.605:   1149  73   9  820
1477476151.616:   1256  73   9  820
1477476151.616:   1375  73   9  820
1477476151.616:   1464  73   9  820
1477476151.616:   1534  73   9  820
1477476151.617:   1626  73   9  820
1477476151.617:   1763  73   9  820
1477476151.619:   1919  73   9  820
1477476151.620:   2068  73   9  820
1477476151.621:   2223  73   9  820
1477476151.624:   2414  73   9  820
1477476151.635:   2643  73   9  820
1477476151.635:   2878  73   9  820
1477476151.635:   3112  73   9  820
1477476151.635:   3391  73   9  820
1477476151.636:   3739  73   9  820
1477476151.636:   4076  73   9  820
1477476151.671:   4260  73   9  820
1477476151.672:   4228  73   9  820
1477476151.675:   4063  73   9  820
1477476151.675:   3856  73   9  820
1477476151.684:   3516  73   9  820
1477476151.685:   2789  73   9  820
1477476151.686:   1521  73   9  820
1477476151.686:   -124  73   9  820
1477476151.687:  -1762  73   9  820
1477476151.687:  -3107  73   9  820
1477476151.689:  -4179  73   9  820
1477476151.690:  -5151  73   9  820
1477476151.690:  -6058  73   9  820
1477476151.691:  -6700  73   9  820
1477476151.691:  -6858  73   9  820
1477476151.691:  -6539  73   9  820
1477476151.691:  -5968  73   9  820
1477476151.692:  -5367  73   9  820
1477476151.692:  -4803  73   9  820
1477476151.692:  -4254  73   9  820
1477476151.692:  -3751  73   9  820
1477476151.692:  -3389  73   9  820
1477476151.692:  -3195  73   9  820
1477476151.693:  -3066  73   9  820
1477476151.693:  -2859  73   9  820
1477476151.693:  -2529  73   9  820
1477476151.693:  -2152  73   9  820
1477476151.693:  -1799  73   9  820
1477476151.697:  -1450  73   9  820
1477476151.699:  -1026  73   9  820
1477476151.706:   -496  73   9  820
1477476151.706:     75  73   9  820
1477476151.707:    586  73   9  820
1477476151.707:    973  73   9  820
1477476151.708:   1227  73   9  820
1477476151.708:   1354  73   9  820
1477476151.710:   1374  73   9  820
1477476151.712:   1320  73   9  820
1477476151.715:   1245  73   9  820
1477476151.716:   1203  73   9  820
1477476151.725:   1213  73   9  820
1477476151.725:   1263  73   9  820
1477476151.726:   1326  73   9  820
1477476151.727:   1384  73   9  820
1477476151.728:   1434  73   9  820
1477476151.728:   1483  73   9  820
1477476151.729:   1542  73   9  820
1477476151.733:   1617  73   9  820
1477476151.743:   1706  73   9  820
1477476151.744:   1791  73   9  820
1477476151.746:   1845  73   9  820
1477476151.747:   1850  73   9  820
1477476151.748:   1815  73   9  820
1477476151.749:   1776  73   9  820
1477476151.749:   1774  73   9  820
1477476151.750:   1818  73   9  820
1477476151.751:   1865  73   9  820
1477476151.752:   1859  73   9  820
1477476151.752:   1784  73   9  820
1477476151.755:   1683  73   9  820
1477476151.756:   1619  73   9  820
1477476151.760:   1621  73   9  820
1477476151.762:   1668  73   9  819
1477476151.766:   1713  73   9  819
1477476151.780:   1734  73   9  819
1477476151.783:   1741  73   9  819
1477476151.785:   1753  73   9  819
1477476151.786:   1772  73   9  819
1477476151.786:   1782  73   9  819
1477476151.788:   1768  73   9  819
1477476151.798:   1737  73   9  819
1477476151.798:   1709  73   9  819
1477476151.799:   1698  73   9  819
1477476151.800:   1705  73   9  819
1477476151.801:   1722  73   9  819
1477476151.801:   1743  73   9  819
1477476151.802:   1764  73   9  819
1477476151.803:   1778  73   9  819
1477476151.804:   1779  73   9  819
1477476151.805:   1763  73   9  819
1477476151.805:   1737  73   9  819
1477476151.807:   1706  73   9  819
1477476151.807:   1676  73   9  819
1477476151.808:   1652  73   9  819
1477476151.809:   1650  73   9  819
1477476151.810:   1672  73   9  819
1477476151.811:   1702  73   9  819
1477476151.811:   1715  73   9  819
1477476151.811:   1703  73   9  819
1477476151.815:   1685  73   9  819
1477476151.816:   1685  73   9  819
1477476151.817:   1702  73   9  819
1477476151.818:   1722  73   9  819
1477476151.820:   1741  73   9  819
1477476151.821:   1776  73   9  819
1477476151.829:   1836  73   9  819
1477476151.845:   1905  73   9  819
1477476151.846:   1958  73   9  819
1477476151.848:   1990  73   9  819
1477476151.849:   2020  73   9  819
1477476151.850:   2058  73   9  819
1477476151.851:   2087  73   9  819
1477476151.852:   2091  73   9  819
1477476151.852:   2082  73   9  819
1477476151.853:   2090  73   9  819
1477476151.853:   2133  73   9  819
1477476151.854:   2195  73   9  819
1477476151.856:   2248  73   9  819
1477476151.856:   2277  73   9  819
1477476151.857:   2286  73   9  819
1477476151.869:   2290  73   9  819
1477476151.869:   2300  73   9  819
1477476151.870:   2330  73   9  819
1477476151.870:   2383  73   9  819
1477476151.870:   2447  73   9  819
1477476151.871:   2497  73   9  819
1477476151.872:   2518  73   9  819
1477476151.872:   2517  73   9  819
1477476151.872:   2517  73   9  819
1477476151.874:   2534  73   9  819
1477476151.874:   2559  73   9  819
1477476151.876:   2574  73   9  819
1477476151.877:   2574  73   9  819
1477476151.884:   2572  73   9  819
1477476151.890:   2578  73   9  819
1477476151.891:   2595  73   9  819
1477476151.892:   2612  73   9  819
1477476151.893:   2615  73   9  819
1477476151.893:   2594  73   9  819
1477476151.894:   2544  73   9  819
1477476151.895:   2468  73   9  819
1477476151.898:   2383  73   9  819
1477476151.934:   2309  73   9  819
1477476151.935:   2264  73   9  819
1477476151.936:   2247  73   9  819
1477476151.937:   2239  73   9  819
1477476151.937:   2212  73   9  819
1477476151.940:   2154  73   9  819
1477476151.941:   2074  73   9  819
1477476151.941:   1991  73   9  819
1477476151.942:   1910  73   9  819
1477476151.942:   1819  73   9  819
1477476151.943:   1704  73   9  819
1477476151.944:   1569  73   9  819
1477476151.944:   1438  73   9  819
1477476151.945:   1335  73   9  819
1477476151.946:   1271  73   9  819
1477476151.946:   1230  73   9  819
1477476151.947:   1183  73   9  819
1477476151.948:   1103  73   9  819
1477476151.948:    986  73   9  819
1477476151.949:    857  73   9  819
1477476151.950:    752  73   9  819
1477476151.951:    688  73   9  819
1477476151.972:    645  73   9  819
1477476151.972:    587  73   9  819
1477476151.972:    495  73   9  819
1477476151.973:    384  73   9  819
1477476151.973:    286  73   9  819
1477476151.973:    214  73   9  819
1477476151.973:    152  73   9  819
1477476151.974:     78  73   9  819
1477476151.974:    -18  73   9  819
1477476151.974:   -124  73   9  819
1477476151.974:   -220  73   9  819
1477476151.974:   -289  73   9  819
1477476151.975:   -327  73   9  819
1477476151.975:   -342  73   9  819
1477476151.975:   -354  73   9  819
1477476151.976:   -381  73   9  819
1477476151.976:   -431  73   9  819
1477476151.976:   -500  73   9  819
1477476151.979:   -577  73   9  819
1477476151.979:   -649  73   9  819
1477476151.980:   -708  73   9  819
1477476151.982:   -747  73   9  819
1477476151.985:   -768  73   9  819
1477476151.986:   -785  73   9  819
1477476152.000:   -811  73   9  819
1477476152.001:   -843  73   9  819
1477476152.002:   -863  73   9  819
1477476152.003:   -858  73   9  819
1477476152.003:   -843  73   9  819
1477476152.004:   -849  73   9  819
1477476152.006:   -891  73   9  819
1477476152.006:   -945  73   9  819
1477476152.007:   -979  73   9  819
1477476152.008:   -977  73   9  819
1477476152.019:   -955  73   9  819
1477476152.020:   -931  73   9  819
1477476152.020:   -908  73   9  819
1477476152.021:   -880  73   9  819
1477476152.021:   -851  73   9  819
1477476152.022:   -825  73   9  819
1477476152.023:   -800  73   9  819
1477476152.024:   -759  73   9  819
1477476152.025:   -699  73   9  819
1477476152.026:   -642  73   9  819
1477476152.027:   -622  73   9  819
1477476152.030:   -653  73   9  819
1477476152.031:   -710  73   9  819
1477476152.033:   -748  73   9  819
1477476152.063:   -743  73   9  819
1477476152.130:   -705  73   9  819
1477476152.131:   -662  73   9  819
1477476152.132:   -628  73   9  819
1477476152.148:   -593  73   9  819
1477476152.148:   -545  73   9  819
1477476152.148:   -490  73   9  819
1477476152.149:   -454  73   9  819
1477476152.149:   -456  73   9  819
1477476152.149:   -485  73   9  819
1477476152.149:   -515  73   9  819
1477476152.150:   -538  73   9  819
1477476152.150:   -567  73   9  819
1477476152.150:   -604  73   9  819
1477476152.150:   -626  73   9  819
1477476152.150:   -608  73   9  819
1477476152.151:   -563  73   9  819
1477476152.151:   -536  73   9  819
1477476152.152:   -555  73   9  819
1477476152.152:   -595  73   9  819
1477476152.152:   -613  73   9  819
1477476152.153:   -598  73   9  819
1477476152.154:   -580  73   9  819
1477476152.154:   -580  73   9  819
1477476152.154:   -580  73   9  819
1477476152.154:   -543  73   9  819
1477476152.155:   -469  73   9  819
1477476152.155:   -400  73   9  819
1477476152.156:   -374  73   9  819
1477476152.156:   -384  73   9  819
1477476152.156:   -394  73   9  819
1477476152.156:   -387  73   9  819
1477476152.157:   -386  73   9  819
1477476152.157:   -427  73   9  819
1477476152.157:   -509  73   9  819
1477476152.158:   -593  73   9  819
1477476152.158:   -638  73   9  819
1477476152.159:   -636  73   9  819
1477476152.159:   -610  73   9  819
1477476152.159:   -598  73   9  819
1477476152.160:   -612  73   9  819
1477476152.160:   -636  73   9  819
1477476152.161:   -637  73   9  819
1477476152.161:   -599  73   9  819
1477476152.161:   -536  73   9  819
1477476152.161:   -480  73   9  819
1477476152.175:   -462  73   9  819
1477476152.176:   -484  73   9  819
1477476152.176:   -533  73   9  819
1477476152.177:   -587  73   9  819
1477476152.177:   -636  73   9  819
1477476152.177:   -682  73   9  819
1477476152.177:   -729  73   9  819
1477476152.178:   -771  73   9  819
1477476152.178:   -789  73   9  819
1477476152.180:   -765  73   9  819
1477476152.180:   -697  73   9  819
1477476152.180:   -606  73   9  819
1477476152.181:   -516  73   9  819
1477476152.181:   -444  73   9  819
1477476152.181:   -397  73   9  819
1477476152.181:   -379  73   9  819
1477476152.181:   -386  73   9  819
1477476152.182:   -405  73   9  819
1477476152.182:   -419  73   9  819
1477476152.183:   -421  73   9  819
1477476152.183:   -423  73   9  819
1477476152.183:   -437  73   9  819
1477476152.183:   -455  73   9  819
1477476152.183:   -459  73   9  819
1477476152.184:   -451  73   9  819
1477476152.184:   -456  73   9  819
1477476152.184:   -491  73   9  819
1477476152.184:   -536  73   9  819
1477476152.184:   -547  73   9  819
1477476152.188:   -504  73   9  819
1477476152.188:   -437  73   9  819
1477476152.188:   -401  73   9  819
1477476152.189:   -418  73   9  819
1477476152.189:   -462  73   9  819
1477476152.192:   -490  73   9  819
1477476152.194:   -491  73   9  819
1477476152.201:   -484  73   9  819
1477476152.202:   -487  73   9  819
1477476152.203:   -499  73   9  819
1477476152.204:   -499  73   9  819
1477476152.206:   -474  73   9  819
1477476152.206:   -430  73   9  819
1477476152.208:   -385  73   9  819
1477476152.213:   -353  73   9  819
1477476152.220:   -343  73   9  819
1477476152.221:   -354  73   9  819
1477476152.223:   -381  73   9  819
1477476152.224:   -408  73   9  819
1477476152.225:   -418  73   9  819
1477476152.226:   -404  73   9  819
1477476152.228:   -376  73   9  819
1477476152.229:   -358  73   9  819
1477476152.239:   -365  73   9  819
1477476152.240:   -391  73   9  819
1477476152.242:   -406  73   9  819
1477476152.243:   -394  73   9  819
1477476152.244:   -367  73   9  819
1477476152.245:   -354  73   9  819
1477476152.246:   -363  73   9  819
1477476152.247:   -373  73   9  819
1477476152.259:   -357  73   9  819
1477476152.259:   -314  73   9  819
1477476152.261:   -273  73   9  819
1477476152.261:   -263  73   9  819
1477476152.261:   -281  73   9  819
1477476152.262:   -302  73   9  819
1477476152.262:   -306  73   9  819
1477476152.262:   -295  73   9  819
1477476152.263:   -280  73   9  819
1477476152.263:   -263  73   9  819
1477476152.265:   -243  73   9  819
1477476152.267:   -220  73   9  819
1477476152.280:   -200  73   9  819
1477476152.280:   -185  73   9  819
1477476152.280:   -172  73   9  819
1477476152.280:   -164  73   9  819
1477476152.280:   -174  73   9  819
1477476152.280:   -202  73   9  819
1477476152.281:   -231  73   9  819
1477476152.281:   -234  73   9  819
1477476152.283:   -198  73   9  819
1477476152.285:   -139  73   9  819
1477476152.286:    -89  73   9  819
1477476152.288:    -63  73   9  819
1477476152.290:    -51  73   9  819
1477476152.294:    -41  73   9  819
1477476152.295:    -28  73   9  819
1477476152.298:    -18  73   9  819
1477476152.298:    -12  73   9  819
1477476152.299:     -5  73   9  819
1477476152.302:      8  73   9  819
1477476152.304:     27  73   9  819
1477476152.309:     46  73   9  819
1477476152.309:     62  73   9  819
1477476152.324:     76  73   9  819
1477476152.325:     85  73   9  819
1477476152.326:     83  73   9  819
1477476152.327:     67  73   9  819
1477476152.327:     50  73   9  819
1477476152.328:     50  73   9  819
1477476152.328:     83  73   9  819
1477476152.328:    149  73   9  819
1477476152.330:    229  73   9  819
1477476152.330:    299  73   9  819
1477476152.330:    342  73   9  819
1477476152.332:    352  73   9  819
1477476152.336:    335  73   9  819
1477476152.336:    304  73   9  819
1477476152.344:    273  73   9  819
1477476152.344:    245  73   9  819
1477476152.344:    217  73   9  819
1477476152.344:    189  73   9  819
1477476152.345:    175  73   9  819
1477476152.349:    188  73   9  819
1477476152.350:    225  73   9  819
1477476152.352:    263  73   9  819
1477476152.353:    281  73   9  819
1477476152.355:    277  73   9  819
1477476152.363:    271  73   9  819
1477476152.364:    281  73   9  819
1477476152.365:    299  73   9  819
1477476152.365:    310  73   9  819
1477476152.367:    310  73   9  819
