timestamp: ADC HeartRate4sAverage HeartRate30sAverage HRV8sAverage
1477480562.489:    182  79  10  767
1477480562.490:    122  79  10  767
1477480562.490:     58  79  10  767
1477480562.490:     -7  79  10  767
1477480562.490:    -61  79  10  767
1477480562.491:    -72  79  10  767
1477480562.491:     21  79  10  767
1477480562.491:    246  79  10  767
1477480562.491:    553  79  10  767
1477480562.491:    796  79  10  767
1477480562.491:    837  79  10  767
1477480562.492:    658  79  10  767
1477480562.492:    358  79  10  767
1477480562.492:     31  79  10  767
1477480562.492:   -359  79  10  767
1477480562.493:   -999  79  10  767
1477480562.494:  -2102  79  10  767
1477480562.497:  -3792  79  10  767
1477480562.499:  -6089  79  10  767
1477480562.504:  -8920  79  10  767
1477480562.504: -12088  79  10  767
1477480562.506: -15233  79  10  767
1477480562.522: -17937  79  10  767
1477480562.523: -19933  79  10  767
1477480562.523: -21184  79  10  767
1477480562.523: -21718  79  10  767
1477480562.523: -21363  79  10  767
1477480562.523: -19779  79  10  767
1477480562.524: -16836  79  10  767
1477480562.524: -12943  79  10  767
1477480562.524:  -8917  79  10  767
1477480562.525:  -5455  79  10  767
1477480562.527:  -2740  79  10  767
1477480562.531:   -558  79  10  767
1477480562.531:   1256  79  10  767
1477480562.533:   2584  79  10  767
1477480562.534:   3214  79  10  767
1477480562.536:   3171  79  10  767
1477480562.538:   2784  79  10  767
1477480562.540:   2446  79  10  767
1477480562.563:   2367  79  10  767
1477480562.563:   2542  79  10  767
1477480562.564:   2908  79  10  767
1477480562.564:   3417  79  10  767
1477480562.565:   4009  79  10  767
1477480562.565:   4558  79  10  767
1477480562.565:   4923  79  10  767
1477480562.566:   5040  79  10  767
1477480562.566:   4951  79  10  767
1477480562.566:   4760  79  10  767
1477480562.566:   4563  79  10  767
1477480562.566:   4415  79  10  767
1477480562.567:   4348  79  10  767
1477480562.567:   4370  79  10  767
1477480562.569:   4457  79  10  767
1477480562.573:   4555  79  10  767
1477480562.574:   4606  79  10  767
1477480562.577:   4581  79  10  767
1477480562.587:   4481  79  10  767
1477480562.587:   4335  79  10  767
1477480562.587:   4182  79  10  767
1477480562.587:   4054  79  10  767
1477480562.587:   3971  79  10  767
1477480562.587:   3931  79  10  767
1477480562.592:   3920  79  10  767
1477480562.592:   3917  79  10  767
1477480562.595:   3900  79  10  767
1477480562.595:   3853  79  10  767
1477480562.600:   3776  79  10  767
1477480562.600:   3679  79  10  767
1477480562.602:   3583  79  10  767
1477480562.605:   3498  79  10  767
1477480562.616:   3423  79  10  767
1477480562.617:   3351  79  10  767
1477480562.617:   3285  79  10  767
1477480562.618:   3235  79  10  767
1477480562.618:   3205  79  10  767
1477480562.618:   3176  79  10  767
1477480562.619:   3128  79  10  767
1477480562.619:   3055  79  10  767
1477480562.620:   2977  79  10  767
1477480562.623:   2915  79  10  767
1477480562.624:   2870  79  10  767
1477480562.626:   2827  79  10  767
1477480562.636:   2776  79  10  767
1477480562.636:   2724  79  10  767
1477480562.637:   2680  79  10  767
1477480562.637:   2646  79  10  767
1477480562.637:   2612  79  10  767
1477480562.638:   2572  79  10  767
1477480562.639:   2530  79  10  767
1477480562.645:   2495  79  10  767
1477480562.645:   2465  79  10  767
1477480562.646:   2436  78  10  766
1477480562.648:   2400  78  10  766
1477480562.649:   2361  78  10  766
1477480562.659:   2322  78  10  766
1477480562.659:   2285  78  10  766
1477480562.660:   2247  78  10  766
1477480562.660:   2209  78  10  766
1477480562.660:   2174  78  10  766
1477480562.664:   2146  78  10  766
1477480562.664:   2119  78  10  766
1477480562.666:   2088  78  10  766
1477480562.668:   2051  78  10  766
1477480562.669:   2016  78  10  766
1477480562.672:   1992  78  10  766
1477480562.673:   1976  78  10  766
1477480562.678:   1959  78  10  766
1477480562.678:   1932  78  10  766
1477480562.679:   1897  78  10  766
1477480562.682:   1865  78  10  766
1477480562.696:   1843  78  10  766
1477480562.697:   1826  78  10  766
1477480562.697:   1809  78  10  766
1477480562.697:   1783  78  10  766
1477480562.697:   1751  78  10  766
1477480562.698:   1717  78  10  766
1477480562.698:   1685  78  10  766
1477480562.701:   1655  78  10  766
1477480562.702:   1628  78  10  766
1477480562.703:   1601  78  10  766
1477480562.704:   1574  78  10  766
1477480562.704:   1546  78  10  766
1477480562.707:   1518  78  10  766
1477480562.709:   1491  78  10  766
1477480562.718:   1468  78  10  766
1477480562.718:   1447  78  10  766
1477480562.718:   1424  78  10  766
1477480562.718:   1396  78  10  766
1477480562.718:   1365  78  10  766
1477480562.721:   1333  78  10  766
1477480562.726:   1305  78  10  766
1477480562.731:   1279  78  10  766
1477480562.737:   1253  78  10  766
1477480562.738:   1223  78  10  766
1477480562.739:   1193  78  10  766
1477480562.739:   1165  78  10  766
1477480562.740:   1145  78  10  766
1477480562.741:   1135  78  10  766
1477480562.742:   1131  78  10  766
1477480562.743:   1125  78  10  766
1477480562.744:   1112  78  10  766
1477480562.746:   1094  78  10  766
1477480562.757:   1075  78  10  766
1477480562.757:   1058  78  10  766
1477480562.758:   1037  78  10  766
1477480562.759:   1012  78  10  766
1477480562.759:    983  78  10  766
1477480562.761:    956  78  10  766
1477480562.761:    930  78  10  766
1477480562.762:    905  78  10  766
1477480562.763:    880  78  10  766
1477480562.764:    862  78  10  766
1477480562.772:    852  78  10  766
1477480562.772:    846  78  10  766
1477480562.776:    837  78  10  766
1477480562.777:    819  78  10  766
1477480562.777:    797  78  10  766
1477480562.777:    778  78  10  766
1477480562.779:    762  78  10  766
1477480562.779:    744  78  10  766
1477480562.782:    721  78  10  766
1477480562.783:    696  78  10  766
1477480562.788:    674  78  10  766
1477480562.788:    655  78  10  766
1477480562.795:    638  78  10  766
1477480562.795:    624  78  10  766
1477480562.795:    615  78  10  766
1477480562.797:    610  78  10  766
1477480562.797:    608  78  10  766
1477480562.802:    602  78  10  766
1477480562.802:    592  78  10  766
1477480562.805:    577  78  10  766
1477480562.806:    555  78  10  766
1477480562.807:    526  78  10  766
1477480562.808:    496  78  10  766
1477480562.815:    472  78  10  766
1477480562.834:    458  78  10  766
1477480562.834:    445  78  10  766
1477480562.835:    424  78  10  766
1477480562.835:    392  78  10  766
1477480562.835:    359  78  10  766
1477480562.835:    335  78  10  766
1477480562.835:    320  78  10  766
1477480562.835:    301  78  10  766
1477480562.836:    264  78  10  766
1477480562.836:    212  78  10  766
1477480562.836:    156  78  10  766
1477480562.836:    111  78  10  766
1477480562.837:     75  78  10  766
1477480562.844:     36  78  10  766
1477480562.845:    -22  78  10  766
1477480562.846:   -100  78  10  766
1477480562.859:   -188  78  10  766
1477480562.861:   -278  78  10  766
1477480562.861:   -374  78  10  766
1477480562.861:   -486  78  10  766
1477480562.862:   -613  78  10  766
1477480562.862:   -742  78  10  766
1477480562.862:   -863  78  10  766
1477480562.862:   -978  78  10  766
1477480562.862:  -1099  78  10  766
1477480562.864:  -1227  78  10  766
1477480562.865:  -1351  78  10  766
1477480562.871:  -1456  78  10  766
1477480562.879:  -1537  78  10  766
1477480562.880:  -1603  78  10  766
1477480562.880:  -1663  78  10  766
1477480562.881:  -1714  78  10  766
1477480562.882:  -1750  78  10  766
1477480562.884:  -1763  78  10  766
1477480562.884:  -1753  78  10  766
1477480562.885:  -1725  78  10  766
1477480562.900:  -1682  78  10  766
1477480562.901:  -1626  78  10  766
1477480562.902:  -1557  78  10  766
1477480562.902:  -1478  78  10  766
1477480562.903:  -1393  78  10  766
1477480562.904:  -1307  78  10  766
1477480562.904:  -1225  78  10  766
1477480562.905:  -1144  78  10  766
1477480562.905:  -1061  78  10  766
1477480562.906:   -973  78  10  766
1477480562.907:   -881  78  10  766
1477480562.907:   -794  78  10  766
1477480562.912:   -717  78  10  766
1477480562.913:   -647  78  10  766
1477480562.914:   -574  78  10  766
1477480562.914:   -495  78  10  766
1477480562.916:   -415  78  10  766
1477480562.920:   -346  78  10  766
1477480562.921:   -295  78  10  766
1477480562.924:   -256  78  10  766
1477480562.940:   -216  78  10  766
1477480562.941:   -171  78  10  766
1477480562.942:   -128  78  10  766
1477480562.942:    -96  78  10  766
1477480562.943:    -76  78  10  766
1477480562.944:    -61  78  10  766
1477480562.945:    -39  78  10  766
1477480562.945:    -14  78  10  766
1477480563.023:      7  78  10  766
1477480563.024:     17  78  10  766
1477480563.024:     16  78  10  766
1477480563.024:     12  78  10  766
1477480563.024:     15  78  10  766
1477480563.024:     21  78  10  766
1477480563.025:     23  78  10  766
1477480563.025:     12  78  10  766
1477480563.025:    -13  78  10  766
1477480563.025:    -40  78  10  766
1477480563.025:    -58  78  10  766
1477480563.025:    -64  78  10  766
1477480563.025:    -65  78  10  766
1477480563.026:    -70  78  10  766
1477480563.026:    -80  78  10  766
1477480563.027:    -91  78  10  766
1477480563.028:    -97  78  10  766
1477480563.028:    -98  78  10  766
1477480563.044:    -96  78  10  766
1477480563.044:    -93  78  10  766
1477480563.044:    -94  78  10  766
1477480563.044:   -103  78  10  766
1477480563.045:   -121  78  10  766
1477480563.045:   -143  78  10  766
1477480563.045:   -157  78  10  766
1477480563.045:   -160  78  10  766
1477480563.045:   -158  78  10  766
1477480563.045:   -157  78  10  766
1477480563.046:   -155  78  10  766
1477480563.046:   -148  78  10  766
1477480563.046:   -133  78  10  766
1477480563.046:   -116  78  10  766
1477480563.046:   -101  78  10  766
1477480563.047:    -90  78  10  766
1477480563.047:    -79  78  10  766
1477480563.047:    -74  78  10  766
1477480563.047:    -75  78  10  766
1477480563.047:    -82  78  10  766
1477480563.048:    -85  78  10  766
1477480563.048:    -85  78  10  766
1477480563.048:    -86  78  10  766
1477480563.048:    -94  78  10  766
1477480563.048:   -101  78  10  766
1477480563.048:   -100  78  10  766
1477480563.049:    -90  78  10  766
1477480563.049:    -84  78  10  766
1477480563.049:    -88  78  10  766
1477480563.049:    -93  78  10  766
1477480563.049:    -83  78  10  766
1477480563.049:    -61  78  10  766
1477480563.050:    -41  78  10  766
1477480563.050:    -36  78  10  766
1477480563.052:    -37  78  10  766
1477480563.053:    -28  78  10  766
1477480563.053:     -4  78  10  766
1477480563.054:     20  78  10  766
1477480563.055:     31  78  10  766
1477480563.056:     28  78  10  766
1477480563.056:     27  78  10  766
1477480563.056:     35  78  10  766
1477480563.056:     44  78  10  766
1477480563.059:     46  78  10  766
1477480563.061:     41  78  10  766
1477480563.062:     36  78  10  766
1477480563.066:     34  78  10  766
1477480563.066:     30  78  10  766
1477480563.077:     23  78  10  766
1477480563.077:     19  78  10  766
1477480563.077:     26  78  10  766
1477480563.077:     37  78  10  766
1477480563.077:     40  78  10  766
1477480563.080:     32  78  10  766
1477480563.080:     25  78  10  766
1477480563.082:     33  78  10  766
1477480563.085:     57  78  10  766
1477480563.086:     81  78  10  766
1477480563.098:     90  78  10  766
1477480563.098:     87  78  10  766
1477480563.098:     87  78  10  766
1477480563.098:     97  78  10  766
1477480563.108:    114  78  10  766
1477480563.109:    129  78  10  766
1477480563.112:    138  78  10  766
1477480563.112:    141  78  10  766
1477480563.113:    141  78  10  766
1477480563.113:    142  78  10  766
1477480563.114:    148  78  10  766
1477480563.114:    164  78  10  766
1477480563.114:    188  78  10  766
1477480563.114:    210  78  10  766
1477480563.115:    224  78  10  766
1477480563.121:    237  78  10  766
1477480563.123:    259  78  10  766
1477480563.125:    297  78  10  766
1477480563.140:    340  78  10  766
1477480563.141:    373  78  10  766
1477480563.142:    385  78  10  766
1477480563.143:    370  78  10  766
1477480563.143:    328  78  10  766
1477480563.144:    263  78  10  766
1477480563.145:    177  78  10  766
1477480563.146:     79  78  10  766
1477480563.147:    -22  78  10  766
1477480563.148:   -123  78  10  766
1477480563.159:   -221  78  10  766
1477480563.159:   -309  78  10  766
1477480563.159:   -375  78  10  766
1477480563.160:   -413  78  10  766
1477480563.160:   -429  78  10  766
1477480563.160:   -437  78  10  766
1477480563.161:   -450  78  10  766
1477480563.161:   -467  78  10  766
1477480563.164:   -483  78  10  766
1477480563.165:   -501  78  10  766
1477480563.166:   -530  78  10  766
1477480563.167:   -572  78  10  766
1477480563.178:   -619  78  10  766
1477480563.178:   -656  78  10  766
1477480563.178:   -676  78  10  766
1477480563.178:   -682  78  10  766
1477480563.178:   -679  78  10  766
1477480563.179:   -665  78  10  766
1477480563.180:   -634  78  10  766
1477480563.183:   -578  78  10  766
1477480563.183:   -499  78  10  766
1477480563.186:   -406  78  10  766
1477480563.215:   -312  78  10  766
1477480563.216:   -228  78  10  766
1477480563.217:   -162  78  10  766
1477480563.217:   -109  78  10  766
1477480563.218:    -59  78  10  766
1477480563.220:     -8  78  10  766
1477480563.220:     38  78  10  766
1477480563.221:     67  78  10  766
1477480563.222:     75  78  10  766
1477480563.223:     73  78  10  766
1477480563.223:     73  78  10  766
1477480563.224:     80  78  10  766
1477480563.225:     88  78  10  766
1477480563.225:     93  78  10  766
1477480563.226:     96  78  10  766
1477480563.227:    105  78  10  766
1477480563.228:    123  78  10  766
1477480563.228:    144  78  10  766
1477480563.229:    161  78  10  766
1477480563.230:    173  78  10  766
1477480563.231:    178  78  10  766
1477480563.231:    180  78  10  766
1477480563.231:    179  78  10  766
1477480563.232:    175  78  10  766
1477480563.233:    171  78  10  766
1477480563.234:    167  78  10  766
1477480563.240:    163  78  10  766
1477480563.240:    157  78  10  766
1477480563.249:    148  78  10  766
1477480563.249:    139  78  10  766
1477480563.249:    131  78  10  766
1477480563.249:    124  78  10  766
1477480563.249:    109  78  10  766
1477480563.251:     82  78  10  766
1477480563.253:     41  78  10  766
1477480563.257:    -17  78  10  766
1477480563.258:    -90  78  10  766
1477480563.259:   -154  78  10  766
1477480563.260:   -156  78  10  766
1477480563.262:    -34  78  10  766
1477480563.264:    213  78  10  766
1477480563.267:    477  78  10  766
1477480563.268:    597  78  10  766
1477480563.271:    497  78  10  766
1477480563.284:    255  78  10  766
1477480563.284:     -9  78  10  766
1477480563.284:   -284  78  10  766
1477480563.284:   -703  78  10  766
1477480563.284:  -1436  78  10  766
1477480563.284:  -2586  78  10  766
1477480563.285:  -4220  78  10  766
1477480563.287:  -6420  78  10  766
1477480563.292:  -9181  78  10  766
1477480563.293: -12232  78  10  766
1477480563.303: -15065  78  10  766
1477480563.303: -17243  78  10  766
1477480563.303: -18666  78  10  766
1477480563.303: -19470  78  10  766
1477480563.304: -19638  78  10  766
1477480563.304: -18834  78  10  766
1477480563.304: -16726  78  10  766
1477480563.306: -13462  78  10  766
1477480563.307:  -9728  78  10  766
1477480563.310:  -6292  78  10  766
1477480563.312:  -3508  78  10  766
1477480563.313:  -1287  78  10  766
1477480563.323:    526  78  10  766
1477480563.323:   1875  78  10  766
1477480563.323:   2582  78  10  766
1477480563.323:   2639  78  10  766
1477480563.323:   2306  78  10  766
1477480563.324:   1938  78  10  766
1477480563.327:   1754  78  10  766
1477480563.331:   1797  78  10  766
1477480563.332:   2035  78  10  766
1477480563.333:   2447  78  10  766
1477480563.337:   3002  78  10  766
1477480563.338:   3602  78  10  766
1477480563.355:   4096  78  10  766
1477480563.356:   4367  78  10  766
1477480563.359:   4393  78  10  766
1477480563.360:   4236  78  10  766
1477480563.361:   4001  78  10  766
1477480563.364:   3788  78  10  766
1477480563.365:   3659  78  10  766
1477480563.366:   3646  78  10  766
1477480563.367:   3735  78  10  766
1477480563.368:   3868  78  10  766
1477480563.369:   3974  78  10  766
1477480563.369:   3998  78  10  766
1477480563.371:   3926  78  10  766
1477480563.371:   3782  78  10  766
1477480563.371:   3610  78  10  766
1477480563.372:   3456  78  10  766
1477480563.373:   3354  78  10  766
1477480563.374:   3317  78  10  766
1477480563.388:   3325  78  10  766
1477480563.389:   3344  78  10  766
1477480563.389:   3339  78  10  766
1477480563.391:   3299  78  10  766
1477480563.391:   3231  78  10  766
1477480563.392:   3152  78  10  766
1477480563.392:   3069  78  10  766
1477480563.393:   2987  78  10  766
1477480563.394:   2915  78  10  766
1477480563.401:   2862  78  10  766
1477480563.410:   2827  78  10  766
1477480563.410:   2800  78  10  766
1477480563.411:   2765  78  10  766
1477480563.411:   2717  78  10  766
1477480563.413:   2663  78  10  766
1477480563.414:   2612  78  10  766
1477480563.414:   2561  78  10  766
1477480563.414:   2509  78  10  766
1477480563.415:   2460  78  10  766
1477480563.415:   2424  78  10  766
1477480563.416:   2406  78  10  766
1477480563.417:   2392  78  10  766
1477480563.417:   2367  78  10  766
1477480563.419:   2326  78  10  766
1477480563.429:   2285  78  10  766
1477480563.430:   2254  78  10  766
1477480563.430:   2232  78  10  766
1477480563.430:   2208  78  10  768
1477480563.430:   2174  78  10  768
1477480563.431:   2136  78  10  768
1477480563.433:   2103  78  10  768
1477480563.436:   2075  78  10  768
1477480563.440:   2049  78  10  768
1477480563.440:   2023  78  10  768
1477480563.442:   1999  78  10  768
1477480563.443:   1971  78  10  768
1477480563.454:   1936  78  10  768
1477480563.455:   1893  78  10  768
1477480563.455:   1849  78  10  768
1477480563.456:   1813  78  10  768
1477480563.457:   1788  78  10  768
1477480563.457:   1767  78  10  768
1477480563.458:   1743  78  10  768
1477480563.459:   1715  78  10  768
1477480563.461:   1687  78  10  768
1477480563.463:   1659  78  10  768
1477480563.475:   1633  78  10  768
1477480563.476:   1609  78  10  768
1477480563.477:   1586  78  10  768
1477480563.478:   1560  78  10  768
1477480563.479:   1530  78  10  768
1477480563.479:   1497  78  10  768
1477480563.480:   1468  78  10  768
1477480563.482:   1446  78  10  768
1477480563.496:   1429  78  10  768
1477480563.497:   1416  78  10  768
1477480563.498:   1401  78  10  768
1477480563.499:   1381  78  10  768
1477480563.499:   1357  78  10  768
1477480563.500:   1331  78  10  768
1477480563.501:   1306  78  10  768
1477480563.503:   1281  78  10  768
1477480563.503:   1254  78  10  768
1477480563.504:   1221  78  10  768
1477480563.505:   1186  78  10  768
1477480563.505:   1155  78  10  768
1477480563.508:   1129  78  10  768
1477480563.508:   1102  78  10  768
1477480563.522:   1069  78  10  768
1477480563.523:   1034  78  10  768
1477480563.524:   1006  78  10  768
1477480563.525:    992  78  10  768
1477480563.525:    985  78  10  768
1477480563.526:    973  78  10  768
1477480563.527:    950  78  10  768
1477480563.528:    924  78  10  768
1477480563.528:    904  78  10  768
1477480563.529:    896  78  10  768
1477480563.542:    891  78  10  768
1477480563.542:    881  78  10  768
1477480563.543:    862  78  10  768
1477480563.544:    836  78  10  768
1477480563.545:    812  78  10  768
1477480563.546:    794  78  10  768
1477480563.547:    781  78  10  768
1477480563.547:    764  78  10  768
1477480563.548:    741  78  10  768
1477480563.548:    713  78  10  768
1477480563.560:    686  78  10  768
1477480563.560:    664  78  10  768
1477480563.560:    646  78  10  768
1477480563.561:    632  78  10  768
1477480563.561:    619  78  10  768
1477480563.563:    610  78  10  768
1477480563.563:    603  78  10  768
1477480563.565:    595  78  10  768
1477480563.565:    581  78  10  768
1477480563.566:    566  78  10  768
1477480563.567:    557  78  10  768
1477480563.571:    558  78  10  768
1477480563.572:    556  78  10  768
1477480563.572:    536  78  10  768
1477480563.578:    498  78  10  768
1477480563.579:    462  78  10  768
1477480563.591:    445  78  10  768
1477480563.592:    444  78  10  768
1477480563.593:    435  78  10  768
1477480563.593:    403  78  10  768
1477480563.595:    361  78  10  768
1477480563.595:    330  78  10  768
1477480563.596:    318  78  10  768
1477480563.597:    310  78  10  768
1477480563.597:    292  78  10  768
1477480563.598:    262  78  10  768
1477480563.599:    231  78  10  768
1477480563.603:    204  78  10  768
1477480563.610:    179  78  10  768
1477480563.611:    150  78  10  768
1477480563.612:    122  78  10  768
1477480563.613:     94  78  10  768
1477480563.613:     66  78  10  768
1477480563.614:     36  78  10  768
1477480563.615:      8  78  10  768
1477480563.617:    -14  78  10  768
1477480563.630:    -33  78  10  768
1477480563.631:    -55  78  10  768
1477480563.631:    -86  78  10  768
1477480563.632:   -124  78  10  768
1477480563.632:   -164  78  10  768
1477480563.633:   -211  78  10  768
1477480563.634:   -270  78  10  768
1477480563.634:   -344  78  10  768
1477480563.637:   -428  78  10  768
1477480563.637:   -514  78  10  768
1477480563.639:   -601  78  10  768
1477480563.639:   -697  78  10  768
1477480563.641:   -807  78  10  768
1477480563.646:   -927  78  10  768
1477480563.654:  -1046  78  10  768
1477480563.654:  -1155  78  10  768
1477480563.655:  -1259  78  10  768
1477480563.656:  -1367  78  10  768
1477480563.657:  -1480  78  10  768
1477480563.657:  -1584  78  10  768
1477480563.658:  -1661  78  10  768
1477480563.660:  -1710  78  10  768
1477480563.664:  -1745  78  10  768
1477480563.665:  -1777  78  10  768
1477480563.673:  -1795  78  10  768
1477480563.674:  -1784  78  10  768
1477480563.675:  -1743  78  10  768
1477480563.676:  -1687  78  10  768
1477480563.676:  -1630  78  10  768
1477480563.678:  -1571  78  10  768
1477480563.678:  -1500  78  10  768
1477480563.679:  -1418  78  10  768
1477480563.681:  -1336  78  10  768
1477480563.683:  -1257  78  10  768
1477480563.693:  -1173  78  10  768
1477480563.693:  -1079  78  10  768
1477480563.693:   -981  78  10  768
1477480563.694:   -898  78  10  768
1477480563.694:   -829  78  10  768
1477480563.694:   -759  78  10  768
1477480563.699:   -675  78  10  768
1477480563.699:   -585  78  10  768
1477480563.700:   -509  78  10  768
1477480563.705:   -455  78  10  768
1477480563.713:   -408  78  10  768
1477480563.732:   -351  78  10  768
1477480563.805:   -287  78  10  768
1477480563.805:   -231  78  10  768
1477480563.805:   -191  78  10  768
1477480563.805:   -161  78  10  768
1477480563.806:   -129  78  10  768
1477480563.806:    -93  78  10  768
1477480563.806:    -64  78  10  768
1477480563.806:    -46  78  10  768
1477480563.806:    -34  78  10  768
1477480563.806:    -20  78  10  768
1477480563.806:     -8  78  10  768
1477480563.807:    -10  78  10  768
1477480563.807:    -25  78  10  768
1477480563.807:    -42  78  10  768
1477480563.807:    -50  78  10  768
1477480563.807:    -50  78  10  768
1477480563.807:    -51  78  10  768
1477480563.807:    -59  78  10  768
1477480563.807:    -67  78  10  768
1477480563.808:    -69  78  10  768
1477480563.808:    -65  78  10  768
1477480563.808:    -64  78  10  768
1477480563.808:    -72  78  10  768
1477480563.808:    -88  78  10  768
1477480563.808:   -103  78  10  768
1477480563.808:   -112  78  10  768
1477480563.809:   -117  78  10  768
1477480563.809:   -127  78  10  768
1477480563.809:   -146  78  10  768
1477480563.809:   -170  78  10  768
1477480563.809:   -189  78  10  768
1477480563.810:   -194  78  10  768
1477480563.823:   -190  78  10  768
1477480563.823:   -186  78  10  768
1477480563.823:   -193  78  10  768
1477480563.823:   -205  78  10  768
1477480563.823:   -210  78  10  768
1477480563.823:   -197  78  10  768
1477480563.823:   -173  78  10  768
1477480563.824:   -156  78  10  768
1477480563.824:   -155  78  10  768
1477480563.824:   -164  78  10  768
1477480563.824:   -167  78  10  768
1477480563.825:   -158  78  10  768
1477480563.825:   -143  78  10  768
1477480563.825:   -138  78  10  768
1477480563.825:   -142  78  10  768
1477480563.825:   -148  78  10  768
1477480563.826:   -151  78  10  768
1477480563.826:   -152  78  10  768
1477480563.827:   -154  78  10  768
1477480563.828:   -153  78  10  768
1477480563.828:   -145  78  10  768
1477480563.828:   -137  78  10  768
1477480563.828:   -136  78  10  768
1477480563.828:   -142  78  10  768
1477480563.829:   -142  78  10  768
1477480563.829:   -128  78  10  768
1477480563.829:   -107  78  10  768
1477480563.829:    -97  78  10  768
1477480563.829:   -102  78  10  768
1477480563.829:   -107  78  10  768
1477480563.833:    -96  78  10  768
1477480563.837:    -75  78  10  768
1477480563.841:    -57  78  10  768
1477480563.841:    -47  78  10  768
1477480563.852:    -38  78  10  768
1477480563.853:    -26  78  10  768
1477480563.853:    -18  78  10  768
1477480563.854:    -21  78  10  768
1477480563.854:    -25  78  10  768
1477480563.854:    -16  78  10  768
1477480563.855:      2  78  10  768
1477480563.855:     14  78  10  768
1477480563.859:      5  78  10  768
1477480563.860:    -15  78  10  768
1477480563.861:    -23  78  10  768
1477480563.863:    -13  78  10  768
1477480563.865:      2  78  10  768
1477480563.866:      9  78  10  768
1477480563.867:      6  78  10  768
1477480563.870:      3  78  10  768
1477480563.872:      3  78  10  768
1477480563.873:      3  78  10  768
1477480563.874:      2  78  10  768
1477480563.875:      5  78  10  768
1477480563.878:     17  78  10  768
1477480563.884:     31  78  10  768
1477480563.894:     39  78  10  768
1477480563.894:     41  78  10  768
1477480563.894:     46  78  10  768
1477480563.894:     62  78  10  768
1477480563.894:     86  78  10  768
1477480563.895:    107  78  10  768
1477480563.895:    119  78  10  768
1477480563.895:    127  78  10  768
1477480563.897:    143  78  10  768
1477480563.902:    175  78  10  768
1477480563.902:    216  78  10  768
1477480563.903:    257  78  10  768
1477480563.905:    288  78  10  768
1477480563.906:    312  78  10  768
1477480563.908:    337  78  10  768
1477480563.911:    364  78  10  768
1477480563.915:    388  78  10  768
1477480563.916:    405  78  10  768
1477480563.917:    410  78  10  768
1477480563.919:    404  78  10  768
1477480563.919:    384  78  10  768
1477480563.922:    340  78  10  768
1477480563.935:    266  78  10  768
1477480563.935:    167  78  10  768
1477480563.935:     56  78  10  768
1477480563.936:    -48  78  10  768
1477480563.936:   -141  78  10  768
1477480563.936:   -227  78  10  768
1477480563.936:   -312  78  10  768
1477480563.938:   -397  78  10  768
1477480563.946:   -467  78  10  768
1477480563.947:   -507  78  10  768
1477480563.947:   -518  78  10  768
1477480563.947:   -522  78  10  768
1477480563.948:   -544  78  10  768
1477480563.952:   -591  78  10  768
1477480563.952:   -645  78  10  768
1477480563.956:   -677  78  10  768
1477480563.956:   -680  78  10  768
1477480563.958:   -670  78  10  768
1477480563.959:   -667  78  10  768
1477480563.961:   -678  78  10  768
1477480563.963:   -684  78  10  768
1477480563.966:   -665  78  10  768
1477480563.967:   -617  78  10  768
1477480563.969:   -550  78  10  768
1477480563.971:   -478  78  10  768
1477480563.975:   -405  78  10  768
1477480563.993:   -332  78  10  768
1477480563.993:   -261  78  10  768
1477480563.994:   -195  78  10  768
1477480563.995:   -130  78  10  768
1477480563.996:    -64  78  10  768
1477480563.997:     -1  78  10  768
1477480563.997:     48  78  10  768
1477480563.998:     78  78  10  768
1477480563.998:     96  78  10  768
1477480563.999:    112  78  10  768
1477480564.000:    130  78  10  768
1477480564.000:    138  78  10  768
1477480564.023:    131  78  10  768
1477480564.024:    117  78  10  768
1477480564.024:    115  78  10  768
1477480564.025:    132  78  10  768
1477480564.026:    153  78  10  768
1477480564.027:    162  78  10  768
1477480564.028:    161  78  10  768
1477480564.028:    170  78  10  768
1477480564.029:    199  78  10  768
1477480564.030:    232  78  10  768
1477480564.032:    243  78  10  768
1477480564.032:    226  78  10  768
1477480564.032:    207  78  10  768
1477480564.033:    213  78  10  768
1477480564.033:    240  78  10  768
1477480564.033:    258  78  10  768
1477480564.033:    244  78  10  768
1477480564.033:    211  78  10  768
1477480564.034:    190  78  10  768
1477480564.036:    192  78  10  768
1477480564.037:    190  78  10  768
1477480564.044:    156  78  10  768
1477480564.053:     95  78  10  768
1477480564.053:     42  78  10  768
1477480564.060:      6  78  10  768
1477480564.061:    -31  78  10  768
1477480564.073:    -73  78  10  768
1477480564.073:    -66  78  10  768
1477480564.073:     69  78  10  768
1477480564.073:    344  78  10  768
1477480564.074:    627  78  10  768
1477480564.074:    736  78  10  768
1477480564.074:    594  78  10  768
1477480564.074:    291  78  10  768
1477480564.074:    -42  78  10  768
1477480564.075:   -386  78  10  768
1477480564.075:   -887  78  10  768
1477480564.075:  -1755  78  10  768
1477480564.078:  -3142  78  10  768
1477480564.078:  -5123  78  10  768
1477480564.079:  -7690  78  10  768
1477480564.081: -10702  78  10  768
1477480564.082: -13816  78  10  768
1477480564.083: -16584  78  10  768
1477480564.086: -18686  78  10  768
1477480564.089: -20070  78  10  768
1477480564.089: -20799  78  10  768
1477480564.091: -20768  78  10  768
1477480564.119: -19648  78  10  768
1477480564.119: -17209  78  10  768
1477480564.120: -13693  78  10  768
1477480564.120:  -9806  78  10  768
1477480564.120:  -6287  78  10  768
1477480564.120:  -3464  78  10  768
1477480564.120:  -1240  78  10  768
1477480564.121:    567  78  10  768
1477480564.121:   1935  78  10  768
1477480564.121:   2699  78  10  768
1477480564.122:   2823  78  10  768
1477480564.122:   2541  78  10  768
1477480564.123:   2208  78  10  768
1477480564.123:   2069  78  10  768
1477480564.129:   2173  78  10  768
1477480564.130:   2470  78  10  768
1477480564.130:   2920  78  10  768
1477480564.130:   3486  78  10  768
1477480564.131:   4070  78  10  768
1477480564.131:   4521  78  10  768
1477480564.133:   4727  78  10  768
1477480564.134:   4684  78  10  768
1477480564.138:   4494  78  10  768
1477480564.139:   4282  78  10  768
1477480564.150:   4126  78  10  768
1477480564.150:   4053  78  10  768
1477480564.150:   4069  78  10  768
1477480564.151:   4155  78  10  768
1477480564.151:   4267  78  10  768
1477480564.152:   4343  78  10  768
1477480564.153:   4344  78  10  768
1477480564.154:   4266  78  10  768
1477480564.155:   4145  78  10  768
1477480564.156:   4022  78  10  768
1477480564.159:   3916  78  10  768
1477480564.161:   3832  78  10  768
1477480564.173:   3774  78  10  768
1477480564.174:   3745  78  10  768
1477480564.174:   3741  78  10  768
1477480564.174:   3742  78  10  768
1477480564.174:   3718  78  10  768
1477480564.176:   3652  78  10  768
1477480564.176:   3554  78  10  768
1477480564.180:   3452  78  10  768
1477480564.180:   3371  78  10  768
1477480564.181:   3315  78  10  768
1477480564.183:   3272  78  10  768
1477480564.185:   3230  78  10  768
1477480564.194:   3183  78  10  768
1477480564.194:   3131  78  10  768
1477480564.194:   3074  78  10  768
1477480564.195:   3011  78  10  768
1477480564.196:   2946  78  10  768
1477480564.197:   2885  78  10  768
1477480564.198:   2833  78  10  768
1477480564.201:   2790  78  10  768
1477480564.203:   2751  78  10  768
1477480564.204:   2713  78  10  768
1477480564.212:   2677  78  10  768
1477480564.212:   2642  78  10  768
1477480564.213:   2606  78  10  768
1477480564.213:   2567  78  10  768
1477480564.215:   2525  77  10  769
1477480564.216:   2485  77  10  769
1477480564.220:   2446  77  10  769
1477480564.221:   2406  77  10  769
1477480564.222:   2363  77  10  769
1477480564.226:   2323  77  10  769
1477480564.237:   2295  77  10  769
1477480564.237:   2277  77  10  769
1477480564.238:   2258  77  10  769
1477480564.239:   2226  77  10  769
1477480564.241:   2186  77  10  769
1477480564.242:   2151  77  10  769
1477480564.257:   2130  77  10  769
1477480564.260:   2113  77  10  769
1477480564.260:   2091  77  10  769
1477480564.261:   2061  77  10  769
1477480564.262:   2036  77  10  769
1477480564.264:   2024  77  10  769
1477480564.274:   2019  77  10  769
1477480564.275:   2010  77  10  769
1477480564.275:   1995  77  10  769
1477480564.276:   1978  77  10  769
1477480564.277:   1963  77  10  769
1477480564.278:   1948  77  10  769
1477480564.279:   1927  77  10  769
1477480564.279:   1898  77  10  769
1477480564.280:   1866  77  10  769
1477480564.281:   1833  77  10  769
1477480564.292:   1802  77  10  769
1477480564.293:   1771  77  10  769
1477480564.297:   1743  77  10  769
1477480564.297:   1723  77  10  769
1477480564.298:   1711  77  10  769
1477480564.299:   1705  77  10  769
1477480564.299:   1694  77  10  769
1477480564.300:   1672  77  10  769
1477480564.312:   1645  77  10  769
1477480564.313:   1625  77  10  769
1477480564.314:   1614  77  10  769
1477480564.314:   1601  77  10  769
1477480564.315:   1571  77  10  769
1477480564.316:   1527  77  10  769
1477480564.316:   1491  77  10  769
1477480564.317:   1473  77  10  769
1477480564.318:   1463  77  10  769
1477480564.319:   1439  77  10  769
1477480564.320:   1397  77  10  769
1477480564.320:   1357  77  10  769
1477480564.331:   1335  77  10  769
1477480564.332:   1323  77  10  769
1477480564.332:   1302  77  10  769
1477480564.333:   1269  77  10  769
1477480564.333:   1237  77  10  769
1477480564.334:   1218  77  10  769
1477480564.335:   1203  77  10  769
1477480564.335:   1178  77  10  769
1477480564.337:   1141  77  10  769
1477480564.337:   1111  77  10  769
1477480564.337:   1100  77  10  769
1477480564.338:   1098  77  10  769
1477480564.338:   1082  77  10  769
1477480564.338:   1044  77  10  769
1477480564.338:   1002  77  10  769
1477480564.339:    985  77  10  769
1477480564.340:    999  77  10  769
1477480564.342:   1017  77  10  769
1477480564.355:   1013  77  10  769
1477480564.355:    988  77  10  769
1477480564.356:    965  77  10  769
1477480564.356:    966  77  10  769
1477480564.356:    982  77  10  769
1477480564.356:    986  77  10  769
1477480564.356:    963  77  10  769
1477480564.358:    929  77  10  769
1477480564.363:    906  77  10  769
1477480564.363:    901  77  10  769
1477480564.365:    898  77  10  769
1477480564.366:    883  77  10  769
1477480564.377:    859  77  10  769
1477480564.377:    840  77  10  769
1477480564.378:    831  77  10  769
1477480564.378:    829  77  10  769
1477480564.378:    825  77  10  769
1477480564.380:    809  77  10  769
1477480564.381:    783  77  10  769
1477480564.381:    752  77  10  769
1477480564.384:    726  77  10  769
1477480564.385:    712  77  10  769
1477480564.390:    703  77  10  769
1477480564.391:    683  77  10  769
1477480564.399:    644  77  10  769
1477480564.400:    598  77  10  769
1477480564.400:    564  77  10  769
1477480564.401:    550  77  10  769
1477480564.401:    541  77  10  769
1477480564.404:    520  77  10  769
1477480564.405:    482  77  10  769
1477480564.406:    438  77  10  769
1477480564.406:    399  77  10  769
1477480564.408:    365  77  10  769
1477480564.411:    325  77  10  769
1477480564.413:    276  77  10  769
1477480564.417:    217  77  10  769
1477480564.419:    147  77  10  769
1477480564.421:     67  77  10  769
1477480564.422:    -23  77  10  769
1477480564.423:   -116  77  10  769
1477480564.424:   -214  77  10  769
1477480564.443:   -322  77  10  769
1477480564.443:   -443  77  10  769
1477480564.444:   -573  77  10  769
1477480564.445:   -702  77  10  769
1477480564.445:   -830  77  10  769
1477480564.446:   -960  77  10  769
1477480564.446:  -1096  77  10  769
1477480564.447:  -1227  77  10  769
1477480564.447:  -1341  77  10  769
1477480564.449:  -1432  77  10  769
1477480564.449:  -1506  77  10  769
1477480564.451:  -1569  77  10  769
1477480564.463:  -1617  77  10  769
1477480564.463:  -1641  77  10  769
1477480564.463:  -1640  77  10  769
1477480564.464:  -1624  77  10  769
1477480564.464:  -1594  77  10  769
1477480564.465:  -1548  77  10  769
1477480564.467:  -1484  77  10  769
1477480564.468:  -1408  77  10  769
1477480564.469:  -1333  77  10  769
1477480564.471:  -1262  77  10  769
1477480564.482:  -1185  77  10  769
1477480564.483:  -1094  77  10  769
1477480564.484:   -989  77  10  769
1477480564.485:   -884  77  10  769
1477480564.485:   -786  77  10  769
1477480564.487:   -696  77  10  769
1477480564.487:   -603  77  10  769
1477480564.488:   -502  77  10  769
1477480564.489:   -397  77  10  769
1477480564.489:   -293  77  10  769
1477480564.491:   -200  77  10  769
1477480564.493:   -120  77  10  769
1477480564.493:    -48  77  10  769
1477480564.496:     22  77  10  769
1477480564.497:     93  77  10  769
1477480564.498:    157  77  10  769
1477480564.501:    203  77  10  769
1477480564.506:    234  77  10  769
1477480564.529:    262  77  10  769
1477480564.605:    299  77  10  769
1477480564.612:    340  77  10  769
1477480564.612:    370  77  10  769
1477480564.613:    376  77  10  769
1477480564.613:    370  77  10  769
1477480564.613:    372  77  10  769
1477480564.613:    392  77  10  769
1477480564.613:    417  77  10  769
1477480564.613:    424  77  10  769
1477480564.613:    408  77  10  769
1477480564.614:    386  77  10  769
1477480564.614:    380  77  10  769
1477480564.614:    389  77  10  769
1477480564.614:    397  77  10  769
1477480564.614:    388  77  10  769
1477480564.614:    366  77  10  769
1477480564.614:    348  77  10  769
1477480564.615:    343  77  10  769
1477480564.615:    345  77  10  769
1477480564.615:    342  77  10  769
1477480564.615:    328  77  10  769
1477480564.615:    309  77  10  769
1477480564.615:    293  77  10  769
1477480564.616:    281  77  10  769
1477480564.616:    273  77  10  769
1477480564.616:    269  77  10  769
1477480564.616:    270  77  10  769
1477480564.616:    272  77  10  769
1477480564.617:    271  77  10  769
1477480564.617:    264  77  10  769
1477480564.617:    254  77  10  769
1477480564.617:    245  77  10  769
1477480564.618:    242  77  10  769
1477480564.618:    244  77  10  769
1477480564.618:    250  77  10  769
1477480564.619:    255  77  10  769
1477480564.619:    254  77  10  769
1477480564.619:    245  77  10  769
1477480564.619:    239  77  10  769
1477480564.619:    247  77  10  769
1477480564.620:    274  77  10  769
1477480564.620:    302  77  10  769
1477480564.620:    309  77  10  769
1477480564.620:    291  77  10  769
1477480564.620:    269  77  10  769
1477480564.621:    268  77  10  769
1477480564.621:    293  77  10  769
1477480564.621:    322  77  10  769
1477480564.621:    331  77  10  769
1477480564.621:    322  77  10  769
1477480564.621:    313  77  10  769
1477480564.622:    321  77  10  769
1477480564.622:    343  77  10  769
1477480564.622:    364  77  10  769
1477480564.622:    375  77  10  769
1477480564.622:    380  77  10  769
1477480564.623:    381  77  10  769
1477480564.623:    379  77  10  769
1477480564.623:    374  77  10  769
1477480564.624:    369  77  10  769
1477480564.629:    372  77  10  769
1477480564.629:    384  77  10  769
1477480564.629:    396  77  10  769
1477480564.630:    396  77  10  769
1477480564.631:    385  77  10  769
1477480564.655:    379  77  10  769
1477480564.656:    388  77  10  769
1477480564.656:    406  77  10  769
1477480564.656:    416  77  10  769
1477480564.656:    411  77  10  769
1477480564.657:    397  77  10  769
1477480564.657:    389  77  10  769
1477480564.657:    393  77  10  769
1477480564.658:    403  77  10  769
1477480564.658:    411  77  10  769
1477480564.658:    418  77  10  769
1477480564.658:    430  77  10  769
1477480564.661:    448  77  10  769
1477480564.664:    461  77  10  769
1477480564.664:    465  77  10  769
1477480564.665:    464  77  10  769
1477480564.669:    469  77  10  769
1477480564.670:    481  77  10  769
1477480564.670:    486  77  10  769
1477480564.673:    477  77  10  769
1477480564.688:    464  77  10  769
1477480564.688:    464  77  10  769
1477480564.689:    484  77  10  769
1477480564.689:    508  77  10  769
1477480564.689:    521  77  10  769
1477480564.689:    522  77  10  769
1477480564.689:    526  77  10  769
1477480564.689:    544  77  10  769
1477480564.692:    567  77  10  769
1477480564.692:    580  77  10  769
1477480564.693:    583  77  10  769
1477480564.695:    592  77  10  769
1477480564.697:    620  77  10  769
1477480564.699:    663  77  10  769
1477480564.700:    704  77  10  769
1477480564.705:    734  77  10  769
1477480564.714:    759  77  10  769
1477480564.714:    793  77  10  769
1477480564.714:    839  77  10  769
1477480564.715:    885  77  10  769
1477480564.715:    920  77  10  769
1477480564.715:    941  77  10  769
1477480564.717:    953  77  10  769
1477480564.719:    957  77  10  769
1477480564.720:    946  77  10  769
1477480564.723:    911  77  10  769
1477480564.724:    850  77  10  769
1477480564.727:    770  77  10  769
1477480564.747:    684  77  10  769
1477480564.747:    597  77  10  769
1477480564.748:    510  77  10  769
1477480564.748:    419  77  10  769
1477480564.748:    332  77  10  769
1477480564.748:    260  77  10  769
1477480564.748:    208  77  10  769
1477480564.749:    170  77  10  769
1477480564.749:    137  77  10  769
1477480564.749:    104  77  10  769
1477480564.752:     74  77  10  769
1477480564.753:     51  77  10  769
1477480564.757:     29  77  10  769
1477480564.757:      1  77  10  769
1477480564.760:    -33  77  10  769
1477480564.760:    -62  77  10  769
1477480564.764:    -75  77  10  769
1477480564.765:    -68  77  10  769
1477480564.774:    -52  77  10  769
1477480564.774:    -33  77  10  769
1477480564.774:    -10  77  10  769
1477480564.775:     25  77  10  769
1477480564.775:     75  77  10  769
1477480564.776:    140  77  10  769
1477480564.776:    217  77  10  769
1477480564.778:    298  77  10  769
1477480564.782:    377  77  10  769
1477480564.782:    450  77  10  769
1477480564.784:    516  77  10  769
1477480564.785:    579  77  10  769
1477480564.795:    642  77  10  769
1477480564.795:    701  77  10  769
1477480564.795:    749  77  10  769
1477480564.796:    783  77  10  769
1477480564.796:    807  77  10  769
1477480564.798:    818  77  10  769
1477480564.799:    815  77  10  769
1477480564.801:    802  77  10  769
1477480564.804:    795  77  10  769
1477480564.805:    807  77  10  769
1477480564.810:    833  77  10  769
1477480564.811:    854  77  10  769
1477480564.812:    857  77  10  769
1477480564.813:    848  77  10  769
1477480564.814:    844  77  10  769
1477480564.817:    856  77  10  769
1477480564.834:    879  77  10  769
1477480564.835:    902  77  10  769
1477480564.835:    919  77  10  769
1477480564.836:    929  77  10  769
1477480564.836:    936  77  10  769
1477480564.836:    945  77  10  769
1477480564.836:    960  77  10  769
1477480564.836:    979  77  10  769
1477480564.836:    997  77  10  769
1477480564.838:   1003  77  10  769
1477480564.839:    995  77  10  769
1477480564.842:    974  77  10  769
1477480564.842:    939  77  10  769
1477480564.845:    890  77  10  769
1477480564.846:    826  77  10  769
1477480564.848:    757  77  10  769
1477480564.850:    710  77  10  769
1477480564.852:    732  77  10  769
1477480564.857:    878  77  10  769
1477480564.857:   1159  77  10  769
1477480564.873:   1499  77  10  769
1477480564.874:   1742  77  10  769
1477480564.874:   1756  77  10  769
1477480564.875:   1548  77  10  769
1477480564.876:   1244  77  10  769
1477480564.876:    939  77  10  769
1477480564.877:    560  77  10  769
1477480564.877:   -126  77  10  769
1477480564.878:  -1359  77  10  769
1477480564.879:  -3240  77  10  769
1477480564.880:  -5728  77  10  769
1477480564.880:  -8683  77  10  769
1477480564.891: -11868  77  10  769
1477480564.891: -14940  77  10  769
1477480564.891: -17532  77  10  769
1477480564.892: -19421  77  10  769
1477480564.892: -20566  77  10  769
1477480564.892: -20939  77  10  769
1477480564.895: -20332  77  10  769
1477480564.898: -18448  77  10  769
1477480564.898: -15260  77  10  769
1477480564.903: -11268  77  10  769
1477480564.910:  -7284  77  10  769
1477480564.911:  -3925  77  10  769
1477480564.911:  -1294  77  10  769
1477480564.911:    831  77  10  769
1477480564.912:   2583  77  10  769
1477480564.913:   3824  77  10  769
1477480564.916:   4365  77  10  769
1477480564.916:   4276  77  10  769
1477480564.917:   3901  77  10  769
1477480564.918:   3616  77  10  769
1477480564.921:   3599  77  10  769
1477480564.923:   3838  77  10  769
1477480564.932:   4265  77  10  769
1477480564.932:   4825  77  10  769
1477480564.932:   5442  77  10  769
1477480564.932:   5980  77  10  769
1477480564.933:   6309  77  10  769
1477480564.937:   6391  77  10  769
1477480564.938:   6289  77  10  769
1477480564.939:   6106  77  10  769
1477480564.940:   5931  77  10  769
1477480564.942:   5808  77  10  769
1477480564.948:   5763  77  10  769
1477480564.948:   5798  77  10  769
1477480564.950:   5883  77  10  769
1477480564.951:   5962  77  10  769
1477480564.952:   5990  77  10  769
1477480564.956:   5952  77  10  769
1477480564.956:   5860  77  10  769
1477480564.958:   5739  77  10  769
1477480564.960:   5617  77  10  769
1477480564.965:   5515  77  10  769
1477480564.975:   5447  77  10  769
1477480564.975:   5413  77  10  769
1477480564.975:   5402  77  10  769
1477480564.975:   5396  77  10  769
1477480564.976:   5373  77  10  769
1477480564.976:   5322  77  10  769
1477480564.979:   5244  77  10  769
1477480564.979:   5157  77  10  769
1477480564.981:   5074  77  10  769
1477480564.982:   5001  77  10  769
1477480564.984:   4932  77  10  769
1477480565.012:   4870  77  10  769
1477480565.013:   4821  77  10  769
1477480565.015:   4789  77  10  769
1477480565.018:   4763  77  10  769
1477480565.019:   4720  77  10  769
1477480565.020:   4652  77  10  769
1477480565.021:   4577  77  10  769
1477480565.021:   4518  77  10  769
1477480565.022:   4475  77  10  769
1477480565.022:   4432  76  10  773
1477480565.022:   4372  76  10  773
1477480565.023:   4303  76  10  773
1477480565.023:   4251  76  10  773
1477480565.023:   4220  76  10  773
1477480565.023:   4190  76  10  773
1477480565.024:   4140  76  10  773
1477480565.024:   4069  76  10  773
1477480565.024:   4002  76  10  773
1477480565.024:   3956  76  10  773
1477480565.025:   3923  76  10  773
1477480565.025:   3886  76  10  773
1477480565.027:   3843  76  10  773
1477480565.029:   3806  76  10  773
1477480565.043:   3788  76  10  773
1477480565.044:   3775  76  10  773
1477480565.044:   3749  76  10  773
1477480565.044:   3707  76  10  773
1477480565.045:   3666  76  10  773
1477480565.045:   3639  76  10  773
1477480565.045:   3618  76  10  773
1477480565.048:   3587  76  10  773
1477480565.048:   3542  76  10  773
1477480565.049:   3497  76  10  773
1477480565.051:   3464  76  10  773
1477480565.053:   3441  76  10  773
1477480565.055:   3414  76  10  773
1477480565.057:   3381  76  10  773
1477480565.058:   3348  76  10  773
1477480565.061:   3325  76  10  773
1477480565.064:   3311  76  10  773
1477480565.067:   3293  76  10  773
1477480565.067:   3267  76  10  773
1477480565.068:   3238  76  10  773
1477480565.071:   3212  76  10  773
1477480565.072:   3197  76  10  773
1477480565.091:   3187  76  10  773
1477480565.094:   3174  76  10  773
1477480565.094:   3148  76  10  773
1477480565.095:   3110  76  10  773
1477480565.095:   3074  76  10  773
1477480565.096:   3053  76  10  773
1477480565.097:   3048  76  10  773
1477480565.098:   3041  76  10  773
1477480565.099:   3016  76  10  773
1477480565.099:   2974  76  10  773
1477480565.100:   2933  76  10  773
1477480565.101:   2905  76  10  773
1477480565.101:   2884  76  10  773
1477480565.102:   2858  76  10  773
1477480565.102:   2822  76  10  773
1477480565.103:   2786  76  10  773
1477480565.138:   2761  76  10  773
1477480565.139:   2744  76  10  773
1477480565.140:   2726  76  10  773
1477480565.141:   2704  76  10  773
1477480565.151:   2683  76  10  773
1477480565.154:   2667  76  10  773
1477480565.155:   2648  76  10  773
1477480565.156:   2621  76  10  773
1477480565.157:   2591  76  10  773
1477480565.157:   2563  76  10  773
1477480565.158:   2537  76  10  773
1477480565.159:   2509  76  10  773
1477480565.185:   2477  76  10  773
1477480565.186:   2449  76  10  773
1477480565.187:   2431  76  10  773
1477480565.187:   2420  76  10  773
1477480565.189:   2410  76  10  773
1477480565.193:   2398  76  10  773
1477480565.195:   2386  76  10  773
1477480565.196:   2373  76  10  773
1477480565.197:   2358  76  10  773
1477480565.198:   2341  76  10  773
1477480565.209:   2323  76  10  773
1477480565.209:   2307  76  10  773
1477480565.210:   2288  76  10  773
1477480565.210:   2265  76  10  773
1477480565.210:   2244  76  10  773
1477480565.211:   2233  76  10  773
1477480565.211:   2235  76  10  773
1477480565.211:   2242  76  10  773
1477480565.212:   2243  76  10  773
1477480565.212:   2239  76  10  773
1477480565.213:   2232  76  10  773
1477480565.213:   2228  76  10  773
1477480565.213:   2224  76  10  773
1477480565.213:   2215  76  10  773
1477480565.213:   2200  76  10  773
1477480565.214:   2175  76  10  773
1477480565.214:   2143  76  10  773
1477480565.214:   2106  76  10  773
1477480565.214:   2073  76  10  773
1477480565.214:   2048  76  10  773
1477480565.215:   2026  76  10  773
1477480565.215:   1997  76  10  773
1477480565.216:   1961  76  10  773
1477480565.216:   1926  76  10  773
1477480565.216:   1900  76  10  773
1477480565.216:   1881  76  10  773
1477480565.227:   1861  76  10  773
1477480565.228:   1836  76  10  773
1477480565.228:   1809  76  10  773
1477480565.228:   1780  76  10  773
1477480565.229:   1746  76  10  773
1477480565.229:   1701  76  10  773
1477480565.229:   1645  76  10  773
1477480565.229:   1590  76  10  773
1477480565.230:   1539  76  10  773
1477480565.230:   1486  76  10  773
1477480565.230:   1419  76  10  773
1477480565.231:   1333  76  10  773
1477480565.231:   1234  76  10  773
1477480565.231:   1132  76  10  773
1477480565.232:   1030  76  10  773
1477480565.233:    921  76  10  773
1477480565.233:    799  76  10  773
1477480565.233:    664  76  10  773
1477480565.235:    524  76  10  773
1477480565.237:    389  76  10  773
1477480565.250:    261  76  10  773
1477480565.251:    139  76  10  773
1477480565.251:     19  76  10  773
1477480565.253:    -96  76  10  773
1477480565.253:   -197  76  10  773
1477480565.254:   -283  76  10  773
1477480565.254:   -356  76  10  773
1477480565.255:   -419  76  10  773
1477480565.258:   -469  76  10  773
1477480565.259:   -498  76  10  773
1477480565.261:   -505  76  10  773
1477480565.263:   -488  76  10  773
1477480565.264:   -452  76  10  773
1477480565.266:   -400  76  10  773
1477480565.267:   -333  76  10  773
1477480565.273:   -257  76  10  773
1477480565.273:   -177  76  10  773
1477480565.274:    -95  76  10  773
1477480565.292:     -3  76  10  773
1477480565.294:    103  76  10  773
1477480565.294:    209  76  10  773
1477480565.294:    302  76  10  773
1477480565.295:    378  76  10  773
1477480565.296:    455  76  10  773
1477480565.296:    547  76  10  773
1477480565.296:    652  76  10  773
1477480565.297:    752  76  10  773
1477480565.297:    833  76  10  773
1477480565.297:    901  76  10  773
1477480565.299:    970  76  10  773
1477480565.299:   1046  76  10  773
1477480565.301:   1118  76  10  773
1477480565.306:   1178  76  10  773
1477480565.307:   1223  76  10  773
1477480565.313:   1263  76  10  773
1477480565.313:   1298  76  10  773
1477480565.313:   1326  76  10  773
1477480565.313:   1346  76  10  773
1477480565.314:   1358  76  10  773
1477480565.318:   1368  76  10  773
1477480565.319:   1377  76  10  773
1477480565.320:   1383  76  10  773
1477480565.325:   1386  76  10  773
1477480565.398:   1387  76  10  773
1477480565.398:   1388  76  10  773
1477480565.399:   1393  76  10  773
1477480565.400:   1399  76  10  773
1477480565.401:   1403  76  10  773
1477480565.402:   1406  76  10  773
1477480565.404:   1409  76  10  773
1477480565.415:   1413  76  10  773
1477480565.415:   1413  76  10  773
1477480565.415:   1403  76  10  773
1477480565.416:   1388  76  10  773
1477480565.416:   1378  76  10  773
1477480565.416:   1380  76  10  773
1477480565.416:   1385  76  10  773
1477480565.417:   1377  76  10  773
1477480565.417:   1353  76  10  773
1477480565.417:   1327  76  10  773
1477480565.417:   1316  76  10  773
1477480565.417:   1318  76  10  773
1477480565.418:   1315  76  10  773
1477480565.418:   1300  76  10  773
1477480565.418:   1285  76  10  773
1477480565.418:   1284  76  10  773
1477480565.419:   1298  76  10  773
1477480565.419:   1314  76  10  773
1477480565.419:   1320  76  10  773
1477480565.420:   1321  76  10  773
1477480565.420:   1329  76  10  773
1477480565.420:   1341  76  10  773
1477480565.420:   1351  76  10  773
1477480565.421:   1354  76  10  773
1477480565.421:   1353  76  10  773
1477480565.421:   1356  76  10  773
1477480565.421:   1364  76  10  773
1477480565.422:   1375  76  10  773
1477480565.423:   1390  76  10  773
1477480565.423:   1408  76  10  773
1477480565.423:   1427  76  10  773
1477480565.424:   1447  76  10  773
1477480565.424:   1468  76  10  773
1477480565.424:   1493  76  10  773
1477480565.425:   1519  76  10  773
1477480565.425:   1540  76  10  773
1477480565.425:   1553  76  10  773
1477480565.426:   1560  76  10  773
1477480565.426:   1569  76  10  773
1477480565.426:   1584  76  10  773
1477480565.427:   1604  76  10  773
1477480565.427:   1622  76  10  773
1477480565.428:   1638  76  10  773
1477480565.428:   1656  76  10  773
1477480565.429:   1681  76  10  773
1477480565.429:   1711  76  10  773
1477480565.429:   1739  76  10  773
1477480565.430:   1757  76  10  773
1477480565.431:   1768  76  10  773
1477480565.433:   1779  76  10  773
1477480565.436:   1800  76  10  773
1477480565.440:   1829  76  10  773
1477480565.472:   1862  76  10  773
1477480565.472:   1889  76  10  773
1477480565.473:   1905  76  10  773
1477480565.474:   1913  76  10  773
1477480565.475:   1920  76  10  773
1477480565.475:   1932  76  10  773
1477480565.476:   1951  76  10  773
1477480565.476:   1975  76  10  773
1477480565.477:   1996  76  10  773
1477480565.478:   2007  76  10  773
1477480565.479:   2009  76  10  773
1477480565.479:   2016  76  10  773
1477480565.480:   2037  76  10  773
1477480565.481:   2072  76  10  773
1477480565.482:   2104  76  10  773
1477480565.482:   2119  76  10  773
1477480565.482:   2118  76  10  773
1477480565.483:   2121  76  10  773
1477480565.483:   2141  76  10  773
1477480565.484:   2170  76  10  773
1477480565.484:   2190  76  10  773
1477480565.484:   2192  76  10  773
1477480565.484:   2187  76  10  773
1477480565.486:   2190  76  10  773
1477480565.486:   2205  76  10  773
1477480565.491:   2219  76  10  773
1477480565.506:   2224  76  10  773
1477480565.507:   2229  76  10  773
1477480565.507:   2249  76  10  773
1477480565.508:   2283  76  10  773
1477480565.508:   2316  76  10  773
1477480565.508:   2334  76  10  773
1477480565.509:   2343  76  10  773
1477480565.509:   2361  76  10  773
1477480565.509:   2392  76  10  773
1477480565.510:   2424  76  10  773
1477480565.510:   2441  76  10  773
1477480565.514:   2443  76  10  773
1477480565.514:   2452  76  10  773
1477480565.516:   2480  76  10  773
1477480565.526:   2519  76  10  773
1477480565.527:   2552  76  10  773
1477480565.528:   2575  76  10  773
1477480565.529:   2601  76  10  773
1477480565.529:   2640  76  10  773
1477480565.530:   2687  76  10  773
1477480565.531:   2725  76  10  773
1477480565.532:   2744  76  10  773
1477480565.533:   2739  76  10  773
1477480565.536:   2712  76  10  773
1477480565.549:   2657  76  10  773
1477480565.550:   2574  76  10  773
1477480565.550:   2468  76  10  773
1477480565.550:   2356  76  10  773
1477480565.551:   2252  76  10  773
1477480565.551:   2163  76  10  773
1477480565.551:   2085  76  10  773
1477480565.552:   2019  76  10  773
1477480565.555:   1965  76  10  773
1477480565.556:   1926  76  10  773
1477480565.557:   1904  76  10  773
1477480565.559:   1895  76  10  773
1477480565.561:   1894  76  10  773
1477480565.564:   1888  76  10  773
1477480565.564:   1867  76  10  773
1477480565.567:   1831  76  10  773
1477480565.568:   1788  76  10  773
1477480565.572:   1757  76  10  773
1477480565.586:   1746  76  10  773
1477480565.587:   1752  76  10  773
1477480565.587:   1767  76  10  773
1477480565.588:   1786  76  10  773
1477480565.588:   1812  76  10  773
1477480565.588:   1849  76  10  773
1477480565.589:   1898  76  10  773
1477480565.589:   1958  76  10  773
1477480565.591:   2029  76  10  773
1477480565.592:   2107  76  10  773
1477480565.596:   2184  76  10  773
1477480565.598:   2250  76  10  773
1477480565.605:   2302  76  10  773
1477480565.606:   2352  76  10  773
1477480565.607:   2412  76  10  773
1477480565.607:   2481  76  10  773
1477480565.608:   2542  76  10  773
1477480565.609:   2581  76  10  773
1477480565.611:   2600  76  10  773
1477480565.612:   2610  76  10  773
1477480565.613:   2617  76  10  773
1477480565.615:   2620  76  10  773
1477480565.623:   2619  76  10  773
1477480565.624:   2620  76  10  773
1477480565.624:   2633  76  10  773
1477480565.624:   2653  76  10  773
1477480565.624:   2670  76  10  773
1477480565.627:   2679  76  10  773
1477480565.628:   2683  76  10  773
1477480565.630:   2688  76  10  773
1477480565.633:   2699  76  10  773
1477480565.637:   2711  76  10  773
1477480565.644:   2719  76  10  773
1477480565.644:   2719  76  10  773
1477480565.645:   2714  76  10  773
1477480565.646:   2712  76  10  773
1477480565.647:   2714  76  10  773
1477480565.648:   2716  76  10  773
1477480565.653:   2713  76  10  773
1477480565.654:   2703  76  10  773
1477480565.662:   2691  76  10  773
1477480565.663:   2675  76  10  773
1477480565.664:   2646  76  10  773
1477480565.664:   2597  76  10  773
1477480565.665:   2532  76  10  773
1477480565.668:   2461  76  10  773
1477480565.668:   2400  76  10  773
1477480565.669:   2385  76  10  773
1477480565.681:   2466  76  10  773
1477480565.682:   2666  76  10  773
1477480565.683:   2930  76  10  773
1477480565.684:   3118  76  10  773
1477480565.684:   3117  76  10  773
1477480565.685:   2940  76  10  773
1477480565.686:   2694  76  10  773
1477480565.687:   2432  76  10  773
1477480565.688:   2082  76  10  773
1477480565.688:   1489  76  10  773
1477480565.689:    519  76  10  773
1477480565.691:   -917  76  10  773
1477480565.694:  -2911  76  10  773
1477480565.696:  -5504  76  10  773
1477480565.697:  -8518  76  10  773
1477480565.698: -11518  76  10  773
1477480565.706: -14024  76  10  773
1477480565.707: -15812  76  10  773
1477480565.720: -16946  76  10  773
1477480565.721: -17472  76  10  773
1477480565.722: -17149  76  10  773
1477480565.723: -15605  76  10  773
1477480565.723: -12784  76  10  773
1477480565.724:  -9179  76  10  773
1477480565.735:  -5566  76  10  773
1477480565.737:  -2487  76  10  773
1477480565.739:    -25  76  10  773
1477480565.739:   1969  76  10  773
1477480565.740:   3536  76  10  773
1477480565.742:   4539  76  10  773
1477480565.743:   4883  76  10  773
1477480565.744:   4711  76  10  773
1477480565.746:   4344  76  10  773
1477480565.747:   4072  76  10  773
1477480565.757:   4022  76  10  773
1477480565.758:   4197  76  10  773
1477480565.759:   4564  76  10  773
1477480565.760:   5086  76  10  773
1477480565.761:   5685  76  10  773
1477480565.762:   6225  76  10  773
1477480565.763:   6579  76  10  773
1477480565.764:   6687  76  10  773
1477480565.774:   6580  76  10  773
1477480565.774:   6353  76  10  773
1477480565.774:   6119  76  10  773
1477480565.774:   5955  76  10  773
1477480565.774:   5904  76  10  773
1477480565.775:   5967  76  10  773
1477480565.775:   6100  76  10  773
1477480565.775:   6232  76  10  773
1477480565.775:   6302  76  10  773
1477480565.775:   6279  76  10  773
1477480565.775:   6175  76  10  773
1477480565.775:   6028  76  10  773
1477480565.776:   5880  76  10  773
1477480565.777:   5760  76  10  773
1477480565.778:   5682  76  10  773
1477480565.779:   5646  76  10  773
1477480565.784:   5642  76  10  773
1477480565.784:   5643  76  10  773
1477480565.794:   5624  76  10  773
1477480565.794:   5570  76  10  773
1477480565.794:   5490  76  10  773
1477480565.794:   5402  76  10  773
1477480565.794:   5321  76  10  773
1477480565.796:   5250  76  10  773
1477480565.796:   5193  76  10  773
1477480565.798:   5152  76  10  773
1477480565.799:   5122  76  10  773
1477480565.806:   5089  76  10  773
1477480565.806:   5041  76  10  773
1477480565.807:   4980  76  10  776
1477480565.808:   4919  76  10  776
1477480565.811:   4870  76  10  776
1477480565.813:   4827  76  10  776
1477480565.815:   4779  76  10  776
1477480565.830:   4725  76  10  776
1477480565.831:   4673  76  10  776
1477480565.832:   4631  76  10  776
1477480565.833:   4597  76  10  776
1477480565.834:   4564  76  10  776
1477480565.834:   4526  76  10  776
1477480565.837:   4486  76  10  776
1477480565.837:   4443  76  10  776
1477480565.838:   4400  76  10  776
1477480565.839:   4362  76  10  776
1477480565.855:   4334  76  10  776
1477480565.856:   4316  76  10  776
1477480565.856:   4297  76  10  776
1477480565.857:   4266  76  10  776
1477480565.857:   4223  76  10  776
1477480565.857:   4179  76  10  776
1477480565.857:   4143  76  10  776
1477480565.858:   4115  76  10  776
1477480565.858:   4084  76  10  776
1477480565.858:   4045  76  10  776
1477480565.858:   4003  76  10  776
1477480565.858:   3966  76  10  776
1477480565.859:   3937  76  10  776
1477480565.860:   3908  76  10  776
1477480565.865:   3877  76  10  776
1477480565.865:   3847  76  10  776
1477480565.866:   3823  76  10  776
1477480565.872:   3798  76  10  776
1477480565.889:   3761  76  10  776
1477480565.889:   3713  76  10  776
1477480565.890:   3667  76  10  776
1477480565.890:   3636  76  10  776
1477480565.890:   3617  76  10  776
1477480565.891:   3594  76  10  776
1477480565.891:   3557  76  10  776
1477480565.891:   3513  76  10  776
1477480565.891:   3479  76  10  776
1477480565.892:   3462  76  10  776
1477480565.892:   3453  76  10  776
1477480565.892:   3438  76  10  776
1477480565.894:   3413  76  10  776
1477480565.897:   3385  76  10  776
1477480565.901:   3360  76  10  776
1477480565.901:   3339  76  10  776
1477480565.903:   3319  76  10  776
1477480565.904:   3296  76  10  776
1477480565.908:   3265  76  10  776
1477480565.909:   3229  76  10  776
1477480565.912:   3189  76  10  776
1477480565.915:   3153  76  10  776
1477480565.925:   3124  76  10  776
1477480565.925:   3102  76  10  776
1477480565.926:   3083  76  10  776
1477480565.926:   3062  76  10  776
1477480565.926:   3040  76  10  776
1477480565.927:   3021  76  10  776
1477480565.929:   3005  76  10  776
1477480565.929:   2989  76  10  776
1477480565.930:   2972  76  10  776
1477480565.931:   2953  76  10  776
1477480565.933:   2933  76  10  776
1477480565.936:   2914  76  10  776
1477480565.944:   2893  76  10  776
1477480565.944:   2872  76  10  776
1477480565.944:   2853  76  10  776
1477480565.944:   2838  76  10  776
1477480565.945:   2825  76  10  776
1477480565.947:   2810  76  10  776
1477480565.949:   2788  76  10  776
1477480565.952:   2757  76  10  776
1477480565.953:   2726  76  10  776
1477480565.955:   2701  76  10  776
1477480565.962:   2684  76  10  776
1477480565.963:   2667  76  10  776
1477480565.963:   2643  76  10  776
1477480565.963:   2614  76  10  776
1477480565.965:   2590  76  10  776
1477480565.967:   2577  76  10  776
1477480565.969:   2570  76  10  776
1477480565.970:   2559  76  10  776
1477480565.974:   2540  76  10  776
1477480565.975:   2518  76  10  776
1477480565.978:   2498  76  10  776
1477480565.978:   2480  76  10  776
1477480565.986:   2461  76  10  776
1477480565.986:   2442  76  10  776
1477480565.986:   2425  76  10  776
1477480565.989:   2410  76  10  776
1477480565.989:   2393  76  10  776
1477480565.990:   2370  76  10  776
1477480565.993:   2343  76  10  776
1477480565.994:   2318  76  10  776
1477480566.004:   2296  76  10  776
1477480566.004:   2272  76  10  776
1477480566.004:   2242  76  10  776
1477480566.004:   2208  76  10  776
1477480566.005:   2174  76  10  776
1477480566.007:   2142  76  10  776
1477480566.008:   2109  76  10  776
1477480566.009:   2075  76  10  776
1477480566.016:   2044  76  10  776
1477480566.016:   2017  76  10  776
1477480566.024:   1992  76  10  776
1477480566.024:   1962  76  10  776
1477480566.024:   1930  76  10  776
1477480566.024:   1899  76  10  776
1477480566.026:   1871  76  10  776
1477480566.026:   1839  76  10  776
1477480566.029:   1795  76  10  776
1477480566.030:   1736  76  10  776
1477480566.034:   1674  76  10  776
1477480566.035:   1617  76  10  776
1477480566.042:   1562  76  10  776
1477480566.042:   1495  76  10  776
1477480566.043:   1407  76  10  776
1477480566.043:   1305  76  10  776
1477480566.045:   1200  76  10  776
1477480566.046:   1099  76  10  776
1477480566.048:    991  76  10  776
1477480566.052:    867  76  10  776
1477480566.059:    731  76  10  776
1477480566.059:    601  76  10  776
1477480566.060:    488  76  10  776
1477480566.060:    387  76  10  776
1477480566.062:    291  76  10  776
1477480566.062:    197  76  10  776
1477480566.063:    118  76  10  776
1477480566.067:     67  76  10  776
1477480566.068:     41  76  10  776
1477480566.069:     32  76  10  776
1477480566.070:     34  76  10  776
1477480566.075:     47  76  10  776
1477480566.075:     78  76  10  776
1477480566.077:    129  76  10  776
1477480566.092:    194  76  10  776
1477480566.092:    266  76  10  776
1477480566.093:    343  76  10  776
1477480566.097:    421  76  10  776
1477480566.097:    500  76  10  776
1477480566.098:    580  76  10  776
1477480566.099:    660  76  10  776
1477480566.099:    743  76  10  776
1477480566.111:    829  76  10  776
1477480566.231:    918  76  10  776
1477480566.253:   1007  76  10  776
1477480566.253:   1089  76  10  776
1477480566.253:   1164  76  10  776
1477480566.254:   1238  76  10  776
1477480566.254:   1316  76  10  776
1477480566.254:   1399  76  10  776
1477480566.255:   1475  76  10  776
1477480566.255:   1535  76  10  776
1477480566.255:   1579  76  10  776
1477480566.255:   1617  76  10  776
1477480566.256:   1654  76  10  776
1477480566.256:   1688  76  10  776
1477480566.256:   1709  76  10  776
1477480566.256:   1718  76  10  776
1477480566.257:   1727  76  10  776
1477480566.257:   1741  76  10  776
1477480566.257:   1754  76  10  776
1477480566.257:   1757  76  10  776
1477480566.258:   1749  76  10  776
1477480566.258:   1745  76  10  776
1477480566.258:   1748  76  10  776
1477480566.258:   1751  76  10  776
1477480566.258:   1742  76  10  776
1477480566.259:   1721  76  10  776
1477480566.259:   1700  76  10  776
1477480566.259:   1685  76  10  776
1477480566.259:   1670  76  10  776
1477480566.259:   1649  76  10  776
1477480566.260:   1623  76  10  776
1477480566.260:   1601  76  10  776
1477480566.261:   1583  76  10  776
1477480566.261:   1563  76  10  776
1477480566.262:   1539  76  10  776
1477480566.262:   1521  76  10  776
1477480566.264:   1517  76  10  776
1477480566.265:   1523  76  10  776
1477480566.280:   1525  76  10  776
1477480566.281:   1517  76  10  776
1477480566.282:   1507  76  10  776
1477480566.282:   1509  76  10  776
1477480566.283:   1523  76  10  776
1477480566.284:   1534  76  10  776
1477480566.284:   1533  76  10  776
1477480566.286:   1522  76  10  776
1477480566.287:   1514  76  10  776
1477480566.287:   1514  76  10  776
1477480566.298:   1515  76  10  776
1477480566.298:   1511  76  10  776
1477480566.299:   1504  76  10  776
1477480566.300:   1500  76  10  776
1477480566.301:   1503  76  10  776
1477480566.304:   1509  76  10  776
1477480566.305:   1510  76  10  776
1477480566.306:   1507  76  10  776
1477480566.307:   1504  76  10  776
1477480566.308:   1504  76  10  776
1477480566.309:   1508  76  10  776
1477480566.310:   1510  76  10  776
1477480566.312:   1507  76  10  776
1477480566.312:   1501  76  10  776
1477480566.312:   1498  76  10  776
1477480566.312:   1500  76  10  776
1477480566.313:   1504  76  10  776
1477480566.313:   1508  76  10  776
1477480566.313:   1509  76  10  776
1477480566.313:   1509  76  10  776
1477480566.314:   1510  76  10  776
1477480566.314:   1512  76  10  776
1477480566.314:   1516  76  10  776
1477480566.315:   1521  76  10  776
1477480566.315:   1525  76  10  776
1477480566.315:   1530  76  10  776
1477480566.315:   1536  76  10  776
1477480566.316:   1544  76  10  776
1477480566.316:   1551  76  10  776
1477480566.316:   1553  76  10  776
1477480566.316:   1546  76  10  776
1477480566.317:   1536  76  10  776
1477480566.317:   1526  76  10  776
1477480566.317:   1518  76  10  776
1477480566.317:   1514  76  10  776
1477480566.318:   1510  76  10  776
1477480566.318:   1504  76  10  776
1477480566.319:   1494  76  10  776
1477480566.319:   1482  76  10  776
1477480566.319:   1477  76  10  776
1477480566.319:   1481  76  10  776
1477480566.320:   1490  76  10  776
1477480566.320:   1494  76  10  776
1477480566.321:   1489  76  10  776
1477480566.321:   1479  76  10  776
1477480566.321:   1473  76  10  776
1477480566.321:   1473  76  10  776
1477480566.321:   1469  76  10  776
1477480566.339:   1457  76  10  776
1477480566.340:   1437  76  10  776
1477480566.341:   1416  76  10  776
1477480566.341:   1397  76  10  776
1477480566.343:   1382  76  10  776
1477480566.344:   1369  76  10  776
1477480566.345:   1360  76  10  776
1477480566.345:   1356  76  10  776
1477480566.346:   1353  76  10  776
1477480566.347:   1350  76  10  776
1477480566.358:   1347  76  10  776
1477480566.359:   1345  76  10  776
1477480566.360:   1347  76  10  776
1477480566.361:   1352  76  10  776
1477480566.362:   1355  76  10  776
1477480566.362:   1356  76  10  776
1477480566.365:   1353  76  10  776
1477480566.368:   1349  76  10  776
1477480566.372:   1347  76  10  776
1477480566.373:   1347  76  10  776
1477480566.373:   1350  76  10  776
1477480566.373:   1349  76  10  776
1477480566.374:   1341  76  10  776
1477480566.374:   1327  76  10  776
1477480566.374:   1318  76  10  776
1477480566.374:   1318  76  10  776
1477480566.375:   1324  76  10  776
1477480566.375:   1331  76  10  776
1477480566.375:   1335  76  10  776
1477480566.375:   1340  76  10  776
1477480566.375:   1350  76  10  776
1477480566.376:   1369  76  10  776
1477480566.376:   1397  76  10  776
1477480566.376:   1431  76  10  776
1477480566.376:   1465  76  10  776
1477480566.376:   1494  76  10  776
1477480566.377:   1519  76  10  776
1477480566.377:   1541  76  10  776
1477480566.377:   1566  76  10  776
1477480566.377:   1592  76  10  776
1477480566.377:   1618  76  10  776
1477480566.378:   1637  76  10  776
1477480566.378:   1636  76  10  776
1477480566.378:   1602  76  10  776
1477480566.378:   1532  76  10  776
1477480566.379:   1437  76  10  776
1477480566.379:   1336  76  10  776
1477480566.379:   1240  76  10  776
1477480566.381:   1144  76  10  776
1477480566.381:   1042  76  10  776
1477480566.403:    938  76  10  776
1477480566.404:    849  76  10  776
1477480566.404:    786  76  10  776
1477480566.404:    746  76  10  776
1477480566.404:    721  76  10  776
1477480566.404:    703  76  10  776
1477480566.405:    688  76  10  776
1477480566.405:    669  76  10  776
1477480566.405:    640  76  10  776
1477480566.405:    603  76  10  776
1477480566.405:    563  76  10  776
1477480566.406:    529  76  10  776
1477480566.406:    503  76  10  776
1477480566.407:    485  76  10  776
1477480566.409:    475  76  10  776
1477480566.411:    475  76  10  776
1477480566.413:    485  76  10  776
1477480566.415:    502  76  10  776
1477480566.417:    528  76  10  776
1477480566.418:    570  76  10  776
1477480566.423:    629  76  10  776
1477480566.424:    696  76  10  776
1477480566.454:    760  76  10  776
1477480566.455:    817  76  10  776
1477480566.455:    875  76  10  776
1477480566.456:    940  76  10  776
1477480566.457:   1013  76  10  776
1477480566.458:   1084  76  10  776
1477480566.459:   1141  76  10  776
1477480566.460:   1181  76  10  776
1477480566.461:   1204  76  10  776
1477480566.462:   1213  76  10  776
1477480566.462:   1212  76  10  776
1477480566.463:   1203  76  10  776
1477480566.463:   1193  76  10  776
1477480566.464:   1186  76  10  776
1477480566.464:   1187  76  10  776
1477480566.465:   1193  76  10  776
1477480566.465:   1200  76  10  776
1477480566.466:   1207  76  10  776
1477480566.467:   1220  76  10  776
1477480566.467:   1241  76  10  776
1477480566.468:   1266  76  10  776
1477480566.469:   1286  76  10  776
1477480566.482:   1295  76  10  776
1477480566.483:   1296  76  10  776
1477480566.483:   1302  76  10  776
1477480566.483:   1314  76  10  776
1477480566.484:   1324  76  10  776
1477480566.484:   1323  76  10  776
1477480566.484:   1309  76  10  776
1477480566.485:   1293  76  10  776
1477480566.486:   1281  76  10  776
1477480566.486:   1264  76  10  776
1477480566.490:   1229  76  10  776
1477480566.491:   1171  76  10  776
1477480566.491:   1103  76  10  776
1477480566.493:   1034  76  10  776
1477480566.507:    967  76  10  776
1477480566.508:    916  76  10  776
1477480566.509:    929  76  10  776
1477480566.517:   1067  76  10  776
1477480566.518:   1336  76  10  776
1477480566.518:   1634  76  10  776
1477480566.519:   1791  76  10  776
1477480566.520:   1715  76  10  776
1477480566.521:   1464  76  10  776
1477480566.521:   1162  76  10  776
1477480566.521:    843  76  10  776
1477480566.522:    390  76  10  776
1477480566.522:   -392  76  10  776
1477480566.522:  -1647  76  10  776
1477480566.523:  -3452  76  10  776
1477480566.527:  -5840  76  10  776
1477480566.542:  -8746  76  10  776
1477480566.544: -11890  76  10  776
1477480566.544: -14807  76  10  776
1477480566.545: -17094  76  10  776
1477480566.545: -18639  76  10  776
1477480566.546: -19546  76  10  776
1477480566.546: -19793  76  10  776
1477480566.547: -19060  76  10  776
1477480566.547: -16997  76  10  776
1477480566.548: -13696  76  10  776
1477480566.548:  -9815  76  10  776
1477480566.550:  -6177  76  10  776
1477480566.561:  -3228  76  10  776
1477480566.561:   -908  76  10  776
1477480566.561:   1012  76  10  776
1477480566.562:   2549  76  10  776
1477480566.562:   3508  76  10  776
1477480566.562:   3780  76  10  776
1477480566.563:   3546  76  10  776
1477480566.564:   3173  76  10  776
1477480566.569:   2959  76  10  776
1477480566.571:   2998  76  10  776
1477480566.572:   3254  76  10  776
1477480566.572:   3679  76  10  776
1477480566.574:   4232  76  10  776
1477480566.575:   4823  76  10  776
1477480566.577:   5309  76  10  776
1477480566.579:   5573  76  10  776
1477480566.582:   5592  76  10  776
1477480566.586:   5438  76  10  776
1477480566.586:   5227  76  10  776
1477480566.588:   5051  76  10  776
1477480566.589:   4954  76  10  776
1477480566.590:   4949  76  10  776
1477480566.593:   5017  76  10  776
1477480566.595:   5119  76  10  776
1477480566.607:   5203  76  10  776
1477480566.607:   5228  76  10  776
1477480566.608:   5176  76  10  776
1477480566.608:   5061  76  10  776
1477480566.608:   4915  76  10  776
1477480566.608:   4777  76  10  776
1477480566.609:   4677  76  10  776
1477480566.613:   4621  76  10  776
1477480566.614:   4599  76  10  776
1477480566.616:   4592  76  10  776
1477480566.617:   4583  76  10  776
1477480566.618:   4559  75  10  783
1477480566.620:   4507  75  10  783
1477480566.622:   4426  75  10  783
1477480566.637:   4331  75  10  783
1477480566.637:   4247  75  10  783
1477480566.637:   4189  75  10  783
1477480566.638:   4150  75  10  783
1477480566.638:   4112  75  10  783
1477480566.638:   4065  75  10  783
1477480566.638:   4015  75  10  783
1477480566.641:   3970  75  10  783
1477480566.641:   3927  75  10  783
1477480566.643:   3877  75  10  783
1477480566.644:   3816  75  10  783
1477480566.646:   3751  75  10  783
1477480566.648:   3696  75  10  783
1477480566.650:   3652  75  10  783
1477480566.667:   3614  75  10  783
1477480566.667:   3576  75  10  783
1477480566.668:   3534  75  10  783
1477480566.668:   3489  75  10  783
1477480566.668:   3445  75  10  783
1477480566.668:   3400  75  10  783
1477480566.669:   3354  75  10  783
1477480566.669:   3308  75  10  783
1477480566.669:   3262  75  10  783
1477480566.670:   3219  75  10  783
1477480566.673:   3180  75  10  783
1477480566.674:   3147  75  10  783
1477480566.675:   3118  75  10  783
1477480566.676:   3087  75  10  783
1477480566.679:   3053  75  10  783
1477480566.683:   3016  75  10  783
1477480566.684:   2979  75  10  783
1477480566.687:   2944  75  10  783
1477480566.702:   2909  75  10  783
1477480566.702:   2873  75  10  783
1477480566.702:   2834  75  10  783
1477480566.702:   2794  75  10  783
1477480566.703:   2755  75  10  783
1477480566.703:   2721  75  10  783
1477480566.703:   2695  75  10  783
1477480566.703:   2673  75  10  783
1477480566.705:   2646  75  10  783
1477480566.705:   2612  75  10  783
1477480566.706:   2575  75  10  783
1477480566.707:   2543  75  10  783
1477480566.714:   2521  75  10  783
1477480566.715:   2504  75  10  783
1477480566.723:   2482  75  10  783
1477480566.724:   2452  75  10  783
1477480566.724:   2423  75  10  783
1477480566.724:   2400  75  10  783
1477480566.724:   2385  75  10  783
1477480566.724:   2368  75  10  783
1477480566.726:   2342  75  10  783
1477480566.728:   2305  75  10  783
1477480566.732:   2263  75  10  783
1477480566.733:   2227  75  10  783
1477480566.734:   2203  75  10  783
1477480566.736:   2188  75  10  783
1477480566.741:   2173  75  10  783
1477480566.741:   2154  75  10  783
1477480566.744:   2133  75  10  783
1477480566.745:   2115  75  10  783
1477480566.747:   2102  75  10  783
1477480566.748:   2087  75  10  783
1477480566.750:   2065  75  10  783
1477480566.759:   2035  75  10  783
1477480566.764:   2005  75  10  783
1477480566.766:   1977  75  10  783
1477480566.767:   1950  75  10  783
1477480566.767:   1923  75  10  783
1477480566.769:   1895  75  10  783
1477480566.769:   1873  75  10  783
1477480566.782:   1856  75  10  783
1477480566.783:   1845  75  10  783
1477480566.783:   1837  75  10  783
1477480566.783:   1829  75  10  783
1477480566.783:   1820  75  10  783
1477480566.783:   1809  75  10  783
1477480566.783:   1794  75  10  783
1477480566.784:   1780  75  10  783
1477480566.785:   1767  75  10  783
1477480566.786:   1755  75  10  783
1477480566.788:   1737  75  10  783
1477480566.789:   1714  75  10  783
1477480566.790:   1691  75  10  783
1477480566.792:   1674  75  10  783
1477480566.796:   1665  75  10  783
1477480566.796:   1658  75  10  783
1477480566.798:   1649  75  10  783
1477480566.799:   1636  75  10  783
1477480566.800:   1621  75  10  783
1477480566.804:   1604  75  10  783
1477480566.806:   1583  75  10  783
1477480566.812:   1564  75  10  783
1477480566.825:   1547  75  10  783
1477480566.825:   1534  75  10  783
1477480566.826:   1519  75  10  783
1477480566.826:   1498  75  10  783
1477480566.826:   1474  75  10  783
1477480566.826:   1455  75  10  783
1477480566.826:   1444  75  10  783
1477480566.826:   1433  75  10  783
1477480566.828:   1412  75  10  783
1477480566.830:   1383  75  10  783
1477480566.830:   1356  75  10  783
1477480566.831:   1334  75  10  783
1477480566.832:   1309  75  10  783
1477480566.837:   1269  75  10  783
1477480566.850:   1211  75  10  783
1477480566.850:   1143  75  10  783
1477480566.851:   1077  75  10  783
1477480566.851:   1017  75  10  783
1477480566.851:    956  75  10  783
1477480566.851:    891  75  10  783
1477480566.851:    824  75  10  783
1477480566.851:    762  75  10  783
1477480566.853:    711  75  10  783
1477480566.854:    670  75  10  783
1477480566.856:    633  75  10  783
1477480566.861:    594  75  10  783
1477480566.861:    548  75  10  783
1477480566.865:    495  75  10  783
1477480566.865:    437  75  10  783
1477480566.866:    373  75  10  783
1477480566.868:    299  75  10  783
1477480566.869:    209  75  10  783
1477480566.872:    106  75  10  783
1477480566.874:     -5  75  10  783
1477480566.881:   -120  75  10  783
1477480566.881:   -240  75  10  783
1477480566.881:   -369  75  10  783
1477480566.883:   -505  75  10  783
1477480566.898:   -636  75  10  783
1477480566.898:   -757  75  10  783
1477480566.898:   -874  75  10  783
1477480566.898:   -993  75  10  783
1477480566.899:  -1112  75  10  783
1477480566.899:  -1218  75  10  783
1477480566.900:  -1301  75  10  783
1477480566.900:  -1365  75  10  783
1477480566.900:  -1421  75  10  783
1477480566.900:  -1467  75  10  783
1477480566.903:  -1493  75  10  783
1477480566.906:  -1492  75  10  783
1477480566.906:  -1473  75  10  783
1477480566.911:  -1448  75  10  783
1477480566.931:  -1415  75  10  783
1477480567.004:  -1360  75  10  783
1477480567.004:  -1278  75  10  783
1477480567.005:  -1180  75  10  783
1477480567.005:  -1085  75  10  783
1477480567.005:   -999  75  10  783
1477480567.005:   -907  75  10  783
1477480567.005:   -798  75  10  783
1477480567.006:   -679  75  10  783
1477480567.006:   -567  75  10  783
1477480567.006:   -469  75  10  783
1477480567.006:   -376  75  10  783
1477480567.006:   -278  75  10  783
1477480567.006:   -175  75  10  783
1477480567.007:    -79  75  10  783
1477480567.007:      5  75  10  783
1477480567.007:     80  75  10  783
1477480567.007:    155  75  10  783
1477480567.007:    231  75  10  783
1477480567.007:    301  75  10  783
1477480567.008:    357  75  10  783
1477480567.008:    400  75  10  783
1477480567.008:    440  75  10  783
1477480567.008:    483  75  10  783
1477480567.009:    528  75  10  783
1477480567.009:    570  75  10  783
1477480567.009:    602  75  10  783
1477480567.009:    622  75  10  783
1477480567.009:    636  75  10  783
1477480567.009:    648  75  10  783
1477480567.010:    659  75  10  783
1477480567.013:    665  75  10  783
1477480567.013:    665  75  10  783
1477480567.013:    661  75  10  783
1477480567.014:    657  75  10  783
1477480567.014:    651  75  10  783
1477480567.014:    640  75  10  783
1477480567.014:    627  75  10  783
1477480567.014:    619  75  10  783
1477480567.014:    620  75  10  783
1477480567.014:    623  75  10  783
1477480567.015:    620  75  10  783
1477480567.015:    610  75  10  783
1477480567.015:    601  75  10  783
1477480567.015:    598  75  10  783
1477480567.015:    601  75  10  783
1477480567.015:    602  75  10  783
1477480567.015:    602  75  10  783
1477480567.016:    604  75  10  783
1477480567.016:    610  75  10  783
1477480567.016:    617  75  10  783
1477480567.016:    617  75  10  783
1477480567.016:    614  75  10  783
1477480567.016:    615  75  10  783
1477480567.020:    627  75  10  783
1477480567.020:    646  75  10  783
1477480567.021:    663  75  10  783
1477480567.026:    674  75  10  783
1477480567.026:    681  75  10  783
1477480567.028:    694  75  10  783
1477480567.046:    714  75  10  783
1477480567.046:    735  75  10  783
1477480567.046:    750  75  10  783
1477480567.046:    757  75  10  783
1477480567.046:    762  75  10  783
1477480567.047:    771  75  10  783
1477480567.047:    784  75  10  783
1477480567.047:    796  75  10  783
1477480567.048:    805  75  10  783
1477480567.049:    813  75  10  783
1477480567.049:    825  75  10  783
1477480567.050:    842  75  10  783
1477480567.052:    858  75  10  783
1477480567.054:    870  75  10  783
1477480567.056:    880  75  10  783
1477480567.061:    893  75  10  783
1477480567.074:    912  75  10  783
1477480567.074:    929  75  10  783
1477480567.074:    941  75  10  783
1477480567.075:    947  75  10  783
1477480567.075:    951  75  10  783
1477480567.075:    956  75  10  783
1477480567.075:    959  75  10  783
1477480567.075:    958  75  10  783
1477480567.077:    952  75  10  783
1477480567.078:    944  75  10  783
1477480567.079:    934  75  10  783
1477480567.085:    921  75  10  783
1477480567.085:    910  75  10  783
1477480567.089:    903  75  10  783
1477480567.090:    901  75  10  783
1477480567.091:    898  75  10  783
1477480567.092:    892  75  10  783
1477480567.093:    886  75  10  783
1477480567.095:    889  75  10  783
1477480567.101:    902  75  10  783
1477480567.104:    916  75  10  783
1477480567.104:    921  75  10  783
1477480567.115:    917  75  10  783
1477480567.115:    912  75  10  783
1477480567.115:    914  75  10  783
1477480567.116:    920  75  10  783
1477480567.116:    921  75  10  783
1477480567.116:    914  75  10  783
1477480567.147:    904  75  10  783
1477480567.147:    897  75  10  783
1477480567.147:    896  75  10  783
1477480567.147:    895  75  10  783
1477480567.147:    890  75  10  783
1477480567.148:    882  75  10  783
1477480567.148:    881  75  10  783
1477480567.148:    889  75  10  783
1477480567.150:    899  75  10  783
1477480567.153:    898  75  10  783
1477480567.155:    885  75  10  783
1477480567.155:    872  75  10  783
1477480567.155:    870  75  10  783
1477480567.155:    882  75  10  783
1477480567.155:    890  75  10  783
1477480567.156:    881  75  10  783
1477480567.156:    858  75  10  783
1477480567.156:    841  75  10  783
1477480567.160:    840  75  10  783
1477480567.160:    846  75  10  783
1477480567.163:    838  75  10  783
1477480567.164:    814  75  10  783
1477480567.164:    790  75  10  783
1477480567.166:    783  75  10  783
1477480567.166:    790  75  10  783
1477480567.169:    791  75  10  783
1477480567.172:    780  75  10  783
1477480567.173:    772  75  10  783
1477480567.191:    787  75  10  783
1477480567.191:    826  75  10  783
1477480567.191:    869  75  10  783
1477480567.191:    899  75  10  783
1477480567.191:    914  75  10  783
1477480567.191:    927  75  10  783
1477480567.192:    949  75  10  783
1477480567.192:    979  75  10  783
1477480567.192:   1010  75  10  783
1477480567.192:   1035  75  10  783
1477480567.193:   1051  75  10  783
1477480567.193:   1066  75  10  783
1477480567.196:   1088  75  10  783
1477480567.199:   1121  75  10  783
1477480567.199:   1161  75  10  783
1477480567.201:   1197  75  10  783
1477480567.214:   1223  75  10  783
1477480567.214:   1235  75  10  783
1477480567.214:   1230  75  10  783
1477480567.214:   1197  75  10  783
1477480567.214:   1129  75  10  783
1477480567.214:   1030  75  10  783
1477480567.216:    919  75  10  783
1477480567.216:    813  75  10  783
1477480567.218:    715  75  10  783
1477480567.219:    619  75  10  783
1477480567.221:    525  75  10  783
1477480567.226:    442  75  10  783
1477480567.226:    383  75  10  783
1477480567.228:    351  75  10  783
1477480567.229:    334  75  10  783
1477480567.230:    317  75  10  783
1477480567.236:    293  75  10  783
1477480567.236:    267  75  10  783
1477480567.248:    242  75  10  783
1477480567.248:    217  75  10  783
1477480567.248:    183  75  10  783
1477480567.248:    145  75  10  783
1477480567.248:    118  75  10  783
1477480567.248:    111  75  10  783
1477480567.249:    117  75  10  783
1477480567.251:    119  75  10  783
1477480567.253:    114  75  10  783
1477480567.257:    117  75  10  783
1477480567.258:    148  75  10  783
1477480567.259:    207  75  10  783
1477480567.273:    276  75  10  783
1477480567.273:    343  75  10  783
1477480567.273:    410  75  10  783
1477480567.273:    484  75  10  783
1477480567.274:    559  75  10  783
1477480567.274:    627  75  10  783
1477480567.274:    685  75  10  783
1477480567.275:    743  75  10  783
1477480567.277:    799  75  10  783
1477480567.278:    841  75  10  783
1477480567.280:    855  75  10  783
1477480567.284:    848  75  10  783
1477480567.285:    840  75  10  783
1477480567.292:    847  75  10  783
1477480567.292:    864  75  10  783
1477480567.293:    879  75  10  783
1477480567.294:    890  75  10  783
1477480567.295:    900  75  10  783
1477480567.298:    917  75  10  783
1477480567.299:    937  75  10  783
1477480567.300:    955  75  10  783
1477480567.302:    968  75  10  783
1477480567.325:    975  75  10  783
1477480567.325:    977  75  10  783
1477480567.325:    975  75  10  783
1477480567.325:    973  75  10  783
1477480567.325:    975  75  10  783
1477480567.326:    982  75  10  783
1477480567.326:    990  75  10  783
1477480567.326:    992  75  10  783
1477480567.326:    987  75  10  783
1477480567.326:    976  75  10  783
1477480567.327:    964  75  10  783
1477480567.327:    948  75  10  783
1477480567.328:    917  75  10  783
1477480567.330:    866  75  10  783
1477480567.330:    798  75  10  783
1477480567.333:    718  75  10  783
1477480567.337:    647  75  10  783
1477480567.337:    618  75  10  783
1477480567.339:    679  75  10  783
1477480567.340:    870  75  10  783
1477480567.346:   1169  75  10  783
1477480567.346:   1460  75  10  783
1477480567.361:   1587  75  10  783
1477480567.361:   1473  75  10  783
1477480567.362:   1185  75  10  783
1477480567.362:    854  75  10  783
1477480567.362:    515  75  10  783
1477480567.362:     16  75  10  783
1477480567.363:   -905  75  10  783
1477480567.364:  -2440  75  10  783
1477480567.364:  -4625  75  10  783
1477480567.365:  -7364  75  10  783
1477480567.367: -10472  75  10  783
1477480567.370: -13664  75  10  783
1477480567.374: -16575  75  10  783
1477480567.375: -18883  75  10  783
1477480567.376: -20446  75  10  783
1477480567.376: -21260  75  10  783
1477480567.381: -21244  75  10  783
1477480567.381: -20124  75  10  783
1477480567.398: -17665  75  10  783
1477480567.398: -14048  75  10  783
1477480567.398:  -9962  75  10  783
1477480567.399:  -6214  75  10  783
1477480567.399:  -3215  75  10  783
1477480567.400:   -871  75  10  783
1477480567.400:   1070  75  10  783
1477480567.406:   2625  75  10  783
1477480567.407:   3580  75  10  783
1477480567.407:   3818  75  10  783
1477480567.407:   3542  75  10  783
1477480567.408:   3152  75  10  783
1477480567.408:   2967  75  10  783
1477480567.409:   3060  75  10  783
1477480567.409:   3375  75  10  783
1477480567.415:   3847  75  10  783
1477480567.415:   4423  75  10  783
1477480567.418:   5005  75  10  783
1477480567.418:   5447  75  10  783
1477480567.421:   5649  75  10  783
1477480567.421:   5618  75  10  783
1477480567.423:   5455  75  10  783
1477480567.437:   5273  75  10  783
1477480567.437:   5138  75  10  783
1477480567.438:   5070  75  10  783
1477480567.438:   5074  75  10  783
1477480567.438:   5140  75  10  783
1477480567.438:   5233  75  10  783
1477480567.442:   5305  75  10  783
1477480567.442:   5316  75  10  783
1477480567.443:   5253  75  10  783
1477480567.450:   5135  75  10  783
1477480567.462:   4998  75  10  783
1477480567.462:   4874  75  10  783
1477480567.462:   4785  75  10  783
1477480567.462:   4733  75  10  783
1477480567.463:   4711  74   9  792
1477480567.463:   4701  74   9  792
1477480567.463:   4685  74   9  792
1477480567.463:   4650  74   9  792
1477480567.463:   4594  74   9  792
1477480567.464:   4521  74   9  792
1477480567.467:   4439  74   9  792
1477480567.468:   4358  74   9  792
1477480567.469:   4287  74   9  792
1477480567.471:   4233  74   9  792
1477480567.472:   4193  74   9  792
1477480567.475:   4157  74   9  792
1477480567.477:   4120  74   9  792
1477480567.482:   4077  74   9  792
1477480567.482:   4031  74   9  792
1477480567.483:   3982  74   9  792
1477480567.484:   3928  74   9  792
1477480567.486:   3866  74   9  792
1477480567.503:   3801  74   9  792
1477480567.503:   3742  74   9  792
1477480567.503:   3695  74   9  792
1477480567.503:   3656  74   9  792
1477480567.503:   3621  74   9  792
1477480567.503:   3585  74   9  792
1477480567.504:   3545  74   9  792
1477480567.504:   3500  74   9  792
1477480567.504:   3453  74   9  792
1477480567.509:   3412  74   9  792
1477480567.509:   3378  74   9  792
1477480567.510:   3345  74   9  792
1477480567.512:   3304  74   9  792
1477480567.513:   3254  74   9  792
1477480567.523:   3209  74   9  792
1477480567.524:   3179  74   9  792
1477480567.524:   3163  74   9  792
1477480567.524:   3142  74   9  792
1477480567.524:   3106  74   9  792
1477480567.525:   3061  74   9  792
1477480567.526:   3025  74   9  792
1477480567.529:   3004  74   9  792
1477480567.532:   2988  74   9  792
1477480567.536:   2963  74   9  792
1477480567.536:   2931  74   9  792
1477480567.538:   2901  74   9  792
1477480567.539:   2881  74   9  792
1477480567.540:   2867  74   9  792
1477480567.543:   2850  74   9  792
1477480567.571:   2825  74   9  792
1477480567.572:   2796  74   9  792
1477480567.573:   2769  74   9  792
1477480567.574:   2745  74   9  792
1477480567.577:   2720  74   9  792
1477480567.588:   2690  74   9  792
1477480567.588:   2655  74   9  792
1477480567.588:   2619  74   9  792
1477480567.589:   2588  74   9  792
1477480567.589:   2562  74   9  792
1477480567.589:   2537  74   9  792
1477480567.589:   2508  74   9  792
1477480567.590:   2474  74   9  792
1477480567.590:   2441  74   9  792
1477480567.591:   2416  74   9  792
1477480567.591:   2402  74   9  792
1477480567.591:   2393  74   9  792
1477480567.592:   2377  74   9  792
1477480567.592:   2351  74   9  792
1477480567.592:   2319  74   9  792
1477480567.592:   2293  74   9  792
1477480567.593:   2276  74   9  792
1477480567.593:   2264  74   9  792
1477480567.593:   2250  74   9  792
1477480567.594:   2230  74   9  792
1477480567.596:   2205  74   9  792
1477480567.596:   2182  74   9  792
1477480567.598:   2166  74   9  792
1477480567.599:   2154  74   9  792
1477480567.602:   2141  74   9  792
1477480567.604:   2120  74   9  792
1477480567.609:   2095  74   9  792
1477480567.610:   2073  74   9  792
1477480567.611:   2058  74   9  792
1477480567.611:   2044  74   9  792
1477480567.613:   2023  74   9  792
1477480567.615:   1997  74   9  792
1477480567.618:   1973  74   9  792
1477480567.619:   1957  74   9  792
1477480567.623:   1947  74   9  792
1477480567.624:   1934  74   9  792
1477480567.644:   1913  74   9  792
1477480567.644:   1890  74   9  792
1477480567.644:   1871  74   9  792
1477480567.644:   1859  74   9  792
1477480567.645:   1851  74   9  792
1477480567.645:   1842  74   9  792
1477480567.645:   1834  74   9  792
1477480567.645:   1827  74   9  792
1477480567.646:   1823  74   9  792
1477480567.647:   1816  74   9  792
1477480567.647:   1805  74   9  792
1477480567.647:   1792  74   9  792
1477480567.649:   1782  74   9  792
1477480567.651:   1776  74   9  792
1477480567.655:   1768  74   9  792
1477480567.655:   1753  74   9  792
1477480567.657:   1731  74   9  792
1477480567.658:   1709  74   9  792
1477480567.672:   1694  74   9  792
1477480567.672:   1687  74   9  792
1477480567.672:   1680  74   9  792
1477480567.673:   1663  74   9  792
1477480567.673:   1634  74   9  792
1477480567.673:   1599  74   9  792
1477480567.674:   1565  74   9  792
1477480567.674:   1539  74   9  792
1477480567.677:   1515  74   9  792
1477480567.679:   1488  74   9  792
1477480567.682:   1454  74   9  792
1477480567.683:   1417  74   9  792
1477480567.684:   1383  74   9  792
1477480567.690:   1352  74   9  792
1477480567.690:   1320  74   9  792
1477480567.690:   1287  74   9  792
1477480567.691:   1254  74   9  792
1477480567.696:   1223  74   9  792
1477480567.696:   1189  74   9  792
1477480567.698:   1146  74   9  792
1477480567.700:   1089  74   9  792
1477480567.706:   1022  74   9  792
1477480567.719:    951  74   9  792
1477480567.719:    879  74   9  792
1477480567.719:    801  74   9  792
1477480567.720:    711  74   9  792
1477480567.720:    608  74   9  792
1477480567.720:    496  74   9  792
1477480567.720:    379  74   9  792
1477480567.720:    263  74   9  792
1477480567.721:    145  74   9  792
1477480567.721:     24  74   9  792
1477480567.723:   -104  74   9  792
1477480567.725:   -240  74   9  792
1477480567.728:   -379  74   9  792
1477480567.732:   -510  74   9  792
1477480567.732:   -629  74   9  792
1477480567.734:   -736  74   9  792
1477480567.735:   -837  74   9  792
1477480567.737:   -929  74   9  792
1477480567.739:  -1005  74   9  792
1477480567.742:  -1059  74   9  792
1477480567.756:  -1093  74   9  792
1477480567.756:  -1112  74   9  792
1477480567.756:  -1118  74   9  792
1477480567.756:  -1109  74   9  792
1477480567.757:  -1081  74   9  792
1477480567.757:  -1036  74   9  792
1477480567.757:   -979  74   9  792
1477480567.760:   -913  74   9  792
1477480567.760:   -838  74   9  792
1477480567.762:   -751  74   9  792
1477480567.763:   -657  74   9  792
1477480567.765:   -561  74   9  792
1477480567.853:   -467  74   9  792
1477480567.853:   -373  74   9  792
1477480567.853:   -276  74   9  792
1477480567.853:   -178  74   9  792
1477480567.853:    -84  74   9  792
1477480567.853:      2  74   9  792
1477480567.854:     82  74   9  792
1477480567.854:    159  74   9  792
1477480567.854:    235  74   9  792
1477480567.854:    306  74   9  792
1477480567.854:    369  74   9  792
1477480567.854:    423  74   9  792
1477480567.854:    473  74   9  792
1477480567.855:    521  74   9  792
1477480567.855:    565  74   9  792
1477480567.855:    604  74   9  792
1477480567.856:    641  74   9  792
1477480567.856:    675  74   9  792
1477480567.856:    703  74   9  792
1477480567.856:    721  74   9  792
1477480567.856:    731  74   9  792
1477480567.856:    739  74   9  792
1477480567.857:    753  74   9  792
1477480567.857:    767  74   9  792
1477480567.857:    773  74   9  792
1477480567.857:    768  74   9  792
1477480567.857:    760  74   9  792
1477480567.858:    757  74   9  792
1477480567.858:    757  74   9  792
1477480567.858:    754  74   9  792
1477480567.858:    745  74   9  792
1477480567.858:    735  74   9  792
1477480567.858:    731  74   9  792
1477480567.859:    728  74   9  792
1477480567.859:    719  74   9  792
1477480567.859:    701  74   9  792
1477480567.859:    683  74   9  792
1477480567.859:    674  74   9  792
1477480567.859:    671  74   9  792
1477480567.861:    663  74   9  792
1477480567.861:    642  74   9  792
1477480567.861:    614  74   9  792
1477480567.862:    593  74   9  792
1477480567.863:    588  74   9  792
1477480567.863:    591  74   9  792
1477480567.864:    591  74   9  792
1477480567.866:    581  74   9  792
1477480567.867:    566  74   9  792
1477480567.867:    557  74   9  792
1477480567.867:    558  74   9  792
1477480567.867:    565  74   9  792
1477480567.867:    569  74   9  792
1477480567.869:    570  74   9  792
1477480567.870:    569  74   9  792
1477480567.873:    566  74   9  792
1477480567.876:    565  74   9  792
1477480567.886:    570  74   9  792
1477480567.886:    582  74   9  792
1477480567.886:    596  74   9  792
1477480567.886:    605  74   9  792
1477480567.887:    608  74   9  792
1477480567.889:    610  74   9  792
1477480567.890:    622  74   9  792
1477480567.892:    642  74   9  792
1477480567.895:    659  74   9  792
1477480567.896:    664  74   9  792
1477480567.896:    661  74   9  792
1477480567.901:    660  74   9  792
1477480567.903:    669  74   9  792
1477480567.904:    681  74   9  792
1477480567.908:    689  74   9  792
1477480567.908:    686  74   9  792
1477480567.908:    678  74   9  792
1477480567.909:    670  74   9  792
1477480567.915:    667  74   9  792
1477480567.915:    666  74   9  792
1477480567.926:    665  74   9  792
1477480567.926:    666  74   9  792
1477480567.926:    671  74   9  792
1477480567.927:    680  74   9  792
1477480567.927:    686  74   9  792
1477480567.930:    684  74   9  792
1477480567.931:    677  74   9  792
1477480567.931:    672  74   9  792
1477480567.931:    675  74   9  792
1477480567.933:    680  74   9  792
1477480567.938:    677  74   9  792
1477480567.939:    665  74   9  792
1477480567.949:    650  74   9  792
1477480567.949:    644  74   9  792
1477480567.949:    648  74   9  792
1477480567.949:    655  74   9  792
1477480567.949:    656  74   9  792
1477480567.949:    653  74   9  792
1477480567.952:    652  74   9  792
1477480567.954:    655  74   9  792
1477480567.956:    658  74   9  792
1477480567.957:    656  74   9  792
1477480567.961:    654  74   9  792
1477480567.963:    655  74   9  792
1477480567.963:    661  74   9  792
1477480567.973:    665  74   9  792
1477480567.973:    662  74   9  792
1477480567.973:    653  74   9  792
1477480567.973:    649  74   9  792
1477480567.979:    655  74   9  792
1477480567.995:    665  74   9  792
1477480567.996:    669  74   9  792
1477480567.996:    667  74   9  792
1477480567.996:    665  74   9  792
1477480567.996:    672  74   9  792
1477480567.996:    681  74   9  792
1477480567.996:    686  74   9  792
1477480567.997:    682  74   9  792
1477480567.997:    680  74   9  792
1477480567.997:    686  74   9  792
1477480567.998:    695  74   9  792
1477480567.998:    695  74   9  792
1477480568.002:    686  74   9  792
1477480568.002:    676  74   9  792
1477480568.003:    676  74   9  792
1477480568.004:    684  74   9  792
1477480568.007:    691  74   9  792
1477480568.010:    690  74   9  792
1477480568.013:    687  74   9  792
1477480568.014:    688  74   9  792
1477480568.015:    692  74   9  792
1477480568.016:    693  74   9  792
1477480568.037:    687  74   9  792
1477480568.037:    679  74   9  792
1477480568.038:    671  74   9  792
1477480568.038:    663  74   9  792
1477480568.038:    654  74   9  792
1477480568.038:    644  74   9  792
1477480568.038:    640  74   9  792
1477480568.038:    648  74   9  792
1477480568.039:    660  74   9  792
1477480568.040:    670  74   9  792
1477480568.041:    675  74   9  792
1477480568.041:    680  74   9  792
1477480568.041:    688  74   9  792
1477480568.043:    694  74   9  792
1477480568.046:    693  74   9  792
1477480568.048:    685  74   9  792
1477480568.073:    678  74   9  792
1477480568.073:    679  74   9  792
1477480568.073:    687  74   9  792
1477480568.073:    700  74   9  792
1477480568.074:    711  74   9  792
1477480568.074:    719  74   9  792
1477480568.074:    727  74   9  792
1477480568.074:    741  74   9  792
1477480568.074:    759  74   9  792
1477480568.074:    762  74   9  792
1477480568.075:    727  74   9  792
1477480568.075:    647  74   9  792
1477480568.076:    538  74   9  792
1477480568.076:    429  74   9  792
1477480568.081:    330  74   9  792
1477480568.081:    228  74   9  792
1477480568.082:    107  74   9  792
1477480568.086:    -23  74   9  792
1477480568.098:   -131  74   9  792
1477480568.099:   -199  74   9  792
1477480568.099:   -237  74   9  792
1477480568.099:   -273  74   9  792
1477480568.099:   -318  74   9  792
1477480568.099:   -360  74   9  792
1477480568.099:   -385  74   9  792
1477480568.099:   -397  74   9  792
1477480568.101:   -415  74   9  792
1477480568.103:   -449  74   9  792
1477480568.105:   -489  74   9  792
1477480568.107:   -515  74   9  792
1477480568.108:   -521  74   9  792
1477480568.111:   -515  74   9  792
1477480568.124:   -509  74   9  792
1477480568.124:   -503  74   9  792
1477480568.124:   -490  74   9  792
1477480568.124:   -464  74   9  792
1477480568.152:   -425  74   9  792
1477480568.152:   -375  74   9  792
1477480568.155:   -313  74   9  792
1477480568.155:   -237  74   9  792
1477480568.156:   -152  74   9  792
1477480568.157:    -76  74   9  792
1477480568.157:    -15  74   9  792
1477480568.157:     38  74   9  792
1477480568.158:     96  74   9  792
1477480568.161:    158  74   9  792
1477480568.161:    212  74   9  792
1477480568.161:    241  74   9  792
1477480568.161:    249  74   9  792
1477480568.162:    249  74   9  792
1477480568.162:    249  74   9  792
1477480568.162:    249  74   9  792
1477480568.162:    251  74   9  792
1477480568.163:    260  74   9  792
1477480568.163:    279  74   9  792
1477480568.163:    302  74   9  792
1477480568.175:    315  74   9  792
1477480568.175:    314  74   9  792
1477480568.175:    305  74   9  792
1477480568.176:    302  74   9  792
1477480568.176:    306  74   9  792
1477480568.176:    313  74   9  792
1477480568.176:    317  74   9  792
1477480568.176:    322  74   9  792
1477480568.176:    333  74   9  792
1477480568.180:    348  74   9  792
1477480568.180:    358  74   9  792
1477480568.181:    357  74   9  792
1477480568.183:    348  74   9  792
1477480568.184:    339  74   9  792
1477480568.187:    327  74   9  792
1477480568.189:    298  74   9  792
1477480568.193:    240  74   9  792
1477480568.193:    156  74   9  792
1477480568.195:     63  74   9  792
1477480568.198:    -14  74   9  792
1477480568.211:    -49  74   9  792
1477480568.211:      1  74   9  792
1477480568.211:    173  74   9  792
1477480568.211:    459  74   9  792
1477480568.212:    757  74   9  792
1477480568.212:    910  74   9  792
1477480568.212:    828  74   9  792
1477480568.213:    568  74   9  792
1477480568.214:    259  74   9  792
1477480568.220:    -58  74   9  792
1477480568.231:   -523  74   9  792
1477480568.232:  -1383  74   9  792
1477480568.232:  -2830  74   9  792
1477480568.232:  -4925  74   9  792
1477480568.232:  -7610  74   9  792
1477480568.232: -10720  74   9  792
1477480568.233: -13957  74   9  792
1477480568.236: -16925  74   9  792
1477480568.236: -19292  74   9  792
1477480568.237: -20934  74   9  792
1477480568.238: -21857  74   9  792
1477480568.240: -21952  74   9  792
1477480568.242: -20905  74   9  792
1477480568.245: -18468  74   9  792
1477480568.249: -14852  74   9  792
1477480568.250: -10774  74   9  792
1477480568.252:  -7032  74   9  792
1477480568.253:  -4006  74   9  792
1477480568.254:  -1594  74   9  792
1477480568.255:    420  74   9  792
1477480568.258:   2008  74   9  792
1477480568.262:   2946  74   9  792
1477480568.263:   3145  74   9  792
1477480568.264:   2839  74   9  792
1477480568.266:   2439  74   9  792
1477480568.267:   2246  74   9  792
1477480568.270:   2326  74   9  792
1477480568.272:   2622  74   9  792
1477480568.283:   3072  74   9  792
1477480568.284:   3631  74   9  792
1477480568.285:   4206  74   9  792
1477480568.286:   4653  74   9  792
1477480568.287:   4865  74   9  792
1477480568.287:   4839  74   9  792
1477480568.288:   4659  74   9  792
1477480568.289:   4437  74   9  792
1477480568.306:   4256  74   9  792
1477480568.306:   4153  73   9  801
1477480568.306:   4140  73   9  801
1477480568.307:   4198  73   9  801
1477480568.307:   4285  73   9  801
1477480568.307:   4354  73   9  801
1477480568.307:   4367  73   9  801
1477480568.307:   4309  73   9  801
1477480568.307:   4190  73   9  801
1477480568.309:   4040  73   9  801
1477480568.309:   3898  73   9  801
1477480568.312:   3794  73   9  801
1477480568.313:   3737  73   9  801
1477480568.314:   3717  73   9  801
1477480568.345:   3713  73   9  801
1477480568.346:   3702  73   9  801
1477480568.347:   3667  73   9  801
1477480568.348:   3602  73   9  801
1477480568.349:   3512  73   9  801
1477480568.354:   3414  73   9  801
1477480568.362:   3326  73   9  801
1477480568.363:   3254  73   9  801
1477480568.363:   3193  73   9  801
1477480568.364:   3138  73   9  801
1477480568.364:   3087  73   9  801
1477480568.364:   3044  73   9  801
1477480568.365:   3005  73   9  801
1477480568.365:   2957  73   9  801
1477480568.365:   2893  73   9  801
1477480568.365:   2820  73   9  801
1477480568.366:   2753  73   9  801
1477480568.366:   2702  73   9  801
1477480568.366:   2662  73   9  801
1477480568.366:   2626  73   9  801
1477480568.367:   2590  73   9  801
1477480568.367:   2555  73   9  801
1477480568.409:   2518  73   9  801
1477480568.409:   2475  73   9  801
1477480568.432:   2421  73   9  801
1477480568.432:   2364  73   9  801
1477480568.433:   2313  73   9  801
1477480568.433:   2269  73   9  801
1477480568.433:   2222  73   9  801
1477480568.434:   2164  73   9  801
1477480568.434:   2103  73   9  801
1477480568.434:   2054  73   9  801
1477480568.435:   2024  73   9  801
1477480568.435:   2003  73   9  801
1477480568.436:   1974  73   9  801
1477480568.436:   1933  73   9  801
1477480568.437:   1892  73   9  801
1477480568.437:   1860  73   9  801
1477480568.438:   1837  73   9  801
1477480568.439:   1811  73   9  801
1477480568.439:   1775  73   9  801
1477480568.440:   1737  73   9  801
1477480568.441:   1703  73   9  801
1477480568.441:   1670  73   9  801
1477480568.442:   1632  73   9  801
1477480568.442:   1589  73   9  801
1477480568.454:   1549  73   9  801
1477480568.454:   1518  73   9  801
1477480568.454:   1491  73   9  801
1477480568.454:   1461  73   9  801
1477480568.454:   1424  73   9  801
1477480568.454:   1386  73   9  801
1477480568.454:   1355  73   9  801
1477480568.455:   1331  73   9  801
1477480568.491:   1308  73   9  801
1477480568.495:   1280  73   9  801
1477480568.495:   1252  73   9  801
1477480568.496:   1227  73   9  801
1477480568.496:   1207  73   9  801
1477480568.496:   1186  73   9  801
1477480568.496:   1164  73   9  801
1477480568.496:   1142  73   9  801
1477480568.496:   1125  73   9  801
1477480568.497:   1111  73   9  801
1477480568.497:   1099  73   9  801
1477480568.497:   1086  73   9  801
1477480568.497:   1072  73   9  801
1477480568.499:   1059  73   9  801
1477480568.499:   1050  73   9  801
1477480568.499:   1042  73   9  801
1477480568.499:   1032  73   9  801
1477480568.499:   1020  73   9  801
1477480568.500:   1007  73   9  801
1477480568.500:    994  73   9  801
1477480568.500:    985  73   9  801
1477480568.502:    976  73   9  801
1477480568.503:    966  73   9  801
1477480568.503:    953  73   9  801
1477480568.503:    938  73   9  801
1477480568.503:    921  73   9  801
1477480568.503:    905  73   9  801
1477480568.505:    889  73   9  801
1477480568.506:    877  73   9  801
1477480568.506:    865  73   9  801
1477480568.506:    849  73   9  801
1477480568.506:    826  73   9  801
1477480568.506:    796  73   9  801
1477480568.506:    770  73   9  801
1477480568.506:    754  73   9  801
1477480568.507:    746  73   9  801
1477480568.507:    737  73   9  801
1477480568.507:    717  73   9  801
1477480568.507:    688  73   9  801
1477480568.507:    665  73   9  801
1477480568.507:    653  73   9  801
1477480568.507:    649  73   9  801
1477480568.529:    638  73   9  801
1477480568.530:    615  73   9  801
1477480568.576:    588  73   9  801
1477480568.578:    569  73   9  801
1477480568.578:    558  73   9  801
1477480568.578:    548  73   9  801
1477480568.578:    531  73   9  801
1477480568.579:    508  73   9  801
1477480568.579:    486  73   9  801
1477480568.579:    466  73   9  801
1477480568.579:    443  73   9  801
1477480568.580:    414  73   9  801
1477480568.580:    379  73   9  801
1477480568.580:    344  73   9  801
1477480568.581:    311  73   9  801
1477480568.583:    280  73   9  801
1477480568.583:    248  73   9  801
1477480568.583:    216  73   9  801
1477480568.584:    184  73   9  801
1477480568.584:    150  73   9  801
1477480568.584:    114  73   9  801
1477480568.584:     76  73   9  801
1477480568.584:     39  73   9  801
1477480568.586:      5  73   9  801
1477480568.587:    -30  73   9  801
1477480568.588:    -68  73   9  801
1477480568.589:   -111  73   9  801
1477480568.591:   -158  73   9  801
1477480568.591:   -204  73   9  801
1477480568.592:   -247  73   9  801
1477480568.592:   -292  73   9  801
1477480568.592:   -347  73   9  801
1477480568.593:   -417  73   9  801
1477480568.593:   -496  73   9  801
1477480568.594:   -576  73   9  801
1477480568.594:   -651  73   9  801
1477480568.594:   -731  73   9  801
1477480568.594:   -830  73   9  801
1477480568.595:   -948  73   9  801
1477480568.595:  -1074  73   9  801
1477480568.595:  -1197  73   9  801
1477480568.636:  -1316  73   9  801
1477480568.701:  -1439  73   9  801
1477480568.701:  -1569  73   9  801
1477480568.701:  -1699  73   9  801
1477480568.701:  -1820  73   9  801
1477480568.701:  -1926  73   9  801
1477480568.701:  -2023  73   9  801
1477480568.702:  -2111  73   9  801
1477480568.702:  -2189  73   9  801
1477480568.702:  -2253  73   9  801
1477480568.702:  -2300  73   9  801
1477480568.702:  -2332  73   9  801
1477480568.702:  -2346  73   9  801
1477480568.703:  -2344  73   9  801
1477480568.703:  -2325  73   9  801
1477480568.703:  -2293  73   9  801
1477480568.703:  -2250  73   9  801
1477480568.703:  -2196  73   9  801
1477480568.704:  -2125  73   9  801
1477480568.718:  -2040  73   9  801
1477480568.718:  -1946  73   9  801
1477480568.718:  -1853  73   9  801
1477480568.718:  -1765  73   9  801
1477480568.718:  -1675  73   9  801
1477480568.719:  -1579  73   9  801
1477480568.719:  -1478  73   9  801
1477480568.719:  -1379  73   9  801
1477480568.719:  -1289  73   9  801
1477480568.719:  -1203  73   9  801
1477480568.719:  -1117  73   9  801
1477480568.719:  -1027  73   9  801
1477480568.720:   -939  73   9  801
1477480568.720:   -857  73   9  801
1477480568.720:   -782  73   9  801
1477480568.720:   -715  73   9  801
1477480568.720:   -652  73   9  801
1477480568.721:   -594  73   9  801
1477480568.721:   -543  73   9  801
1477480568.721:   -499  73   9  801
1477480568.721:   -462  73   9  801
1477480568.721:   -430  73   9  801
1477480568.747:   -401  73   9  801
1477480568.747:   -372  73   9  801
1477480568.747:   -346  73   9  801
1477480568.747:   -326  73   9  801
1477480568.747:   -315  73   9  801
1477480568.747:   -313  73   9  801
1477480568.748:   -318  73   9  801
1477480568.748:   -324  73   9  801
1477480568.749:   -329  73   9  801
1477480568.749:   -332  73   9  801
1477480568.749:   -336  73   9  801
1477480568.749:   -342  73   9  801
1477480568.749:   -352  73   9  801
1477480568.750:   -365  73   9  801
1477480568.750:   -376  73   9  801
1477480568.751:   -381  73   9  801
1477480568.751:   -380  73   9  801
1477480568.754:   -380  73   9  801
1477480568.755:   -388  73   9  801
1477480568.755:   -404  73   9  801
1477480568.755:   -419  73   9  801
1477480568.755:   -426  73   9  801
1477480568.755:   -425  73   9  801
1477480568.755:   -426  73   9  801
1477480568.756:   -436  73   9  801
1477480568.761:   -451  73   9  801
1477480568.761:   -461  73   9  801
1477480568.762:   -462  73   9  801
1477480568.768:   -461  73   9  801
1477480568.769:   -465  73   9  801
1477480568.786:   -472  73   9  801
1477480568.786:   -475  73   9  801
1477480568.787:   -475  73   9  801
1477480568.807:   -478  73   9  801
1477480568.807:   -484  73   9  801
1477480568.807:   -486  73   9  801
1477480568.808:   -478  73   9  801
1477480568.808:   -465  73   9  801
1477480568.811:   -460  73   9  801
1477480568.811:   -466  73   9  801
1477480568.811:   -474  73   9  801
1477480568.812:   -473  73   9  801
1477480568.812:   -463  73   9  801
1477480568.812:   -455  73   9  801
1477480568.813:   -453  73   9  801
1477480568.813:   -454  73   9  801
1477480568.813:   -453  73   9  801
1477480568.813:   -449  73   9  801
1477480568.814:   -448  73   9  801
1477480568.816:   -449  73   9  801
1477480568.817:   -450  73   9  801
1477480568.817:   -448  73   9  801
1477480568.818:   -441  73   9  801
1477480568.821:   -431  73   9  801
1477480568.822:   -421  73   9  801
1477480568.822:   -414  73   9  801
1477480568.822:   -412  73   9  801
1477480568.822:   -407  73   9  801
1477480568.823:   -393  73   9  801
1477480568.823:   -370  73   9  801
1477480568.823:   -349  73   9  801
1477480568.823:   -342  73   9  801
1477480568.823:   -348  73   9  801
1477480568.823:   -357  73   9  801
1477480568.823:   -358  73   9  801
1477480568.824:   -349  73   9  801
1477480568.824:   -336  73   9  801
1477480568.824:   -324  73   9  801
1477480568.824:   -317  73   9  801
1477480568.824:   -313  73   9  801
1477480568.825:   -309  73   9  801
1477480568.825:   -301  73   9  801
1477480568.825:   -286  73   9  801
1477480568.825:   -272  73   9  801
1477480568.825:   -268  73   9  801
1477480568.825:   -277  73   9  801
1477480568.825:   -292  73   9  801
1477480568.852:   -303  73   9  801
1477480568.866:   -307  73   9  801
1477480568.867:   -306  73   9  801
1477480568.869:   -300  73   9  801
1477480568.869:   -291  73   9  801
1477480568.916:   -279  73   9  801
1477480568.916:   -269  73   9  801
1477480568.923:   -262  73   9  801
1477480568.923:   -254  73   9  801
1477480568.923:   -242  73   9  801
1477480568.924:   -227  73   9  801
1477480568.924:   -216  73   9  801
1477480568.924:   -214  73   9  801
1477480568.924:   -218  73   9  801
1477480568.924:   -224  73   9  801
1477480568.924:   -232  73   9  801
1477480568.924:   -243  73   9  801
1477480568.925:   -254  73   9  801
1477480568.925:   -258  73   9  801
1477480568.925:   -254  73   9  801
1477480568.925:   -247  73   9  801
1477480568.925:   -243  73   9  801
1477480568.925:   -240  73   9  801
1477480568.926:   -231  73   9  801
1477480568.926:   -214  73   9  801
1477480568.926:   -198  73   9  801
1477480568.926:   -195  73   9  801
1477480568.926:   -203  73   9  801
1477480568.926:   -209  73   9  801
1477480568.927:   -204  73   9  801
1477480568.927:   -196  73   9  801
1477480568.927:   -195  73   9  801
1477480568.927:   -200  73   9  801
1477480568.927:   -199  73   9  801
1477480568.928:   -183  73   9  801
1477480568.928:   -163  73   9  801
1477480568.928:   -154  73   9  801
1477480568.928:   -152  73   9  801
1477480568.929:   -139  73   9  801
1477480568.929:   -107  73   9  801
1477480568.929:    -68  73   9  801
1477480568.929:    -42  73   9  801
1477480568.929:    -34  73   9  801
1477480568.929:    -27  73   9  801
1477480568.929:     -6  73   9  801
1477480568.930:     24  73   9  801
1477480568.930:     51  73   9  801
1477480568.930:     67  73   9  801
1477480568.930:     80  73   9  801
1477480568.931:    100  73   9  801
1477480568.931:    130  73   9  801
1477480568.931:    162  73   9  801
1477480568.931:    188  73   9  801
1477480568.931:    207  73   9  801
1477480568.931:    225  73   9  801
1477480568.999:    243  73   9  801
1477480569.000:    253  73   9  801
1477480569.004:    235  73   9  801
1477480569.004:    177  73   9  801
1477480569.005:     88  73   9  801
1477480569.005:    -12  73   9  801
1477480569.005:   -104  73   9  801
1477480569.006:   -189  73   9  801
1477480569.006:   -279  73   9  801
1477480569.007:   -379  73   9  801
1477480569.007:   -476  73   9  801
1477480569.007:   -552  73   9  801
1477480569.008:   -599  73   9  801
1477480569.008:   -624  73   9  801
1477480569.009:   -641  73   9  801
1477480569.009:   -661  73   9  801
1477480569.009:   -690  73   9  801
1477480569.011:   -724  73   9  801
1477480569.011:   -757  73   9  801
1477480569.011:   -787  73   9  801
1477480569.012:   -814  73   9  801
1477480569.012:   -837  73   9  801
1477480569.013:   -852  73   9  801
1477480569.014:   -861  73   9  801
1477480569.014:   -865  73   9  801
1477480569.015:   -865  73   9  801
1477480569.015:   -853  73   9  801
1477480569.015:   -822  73   9  801
1477480569.016:   -772  73   9  801
1477480569.016:   -712  73   9  801
1477480569.016:   -647  73   9  801
1477480569.017:   -572  73   9  801
1477480569.017:   -480  73   9  801
1477480569.017:   -381  73   9  801
1477480569.018:   -296  73   9  801
1477480569.019:   -233  73   9  801
1477480569.033:   -179  73   9  801
1477480569.034:   -119  73   9  801
1477480569.036:    -59  73   9  801
