timestamp: ADC HeartRate4sAverage HeartRate30sAverage HRV8sAverage
1477473468.912:    992  77  10  758
1477473468.912:   1015  77  10  758
1477473468.918:   1046  77  10  758
1477473468.918:   1065  77  10  758
1477473468.918:   1071  77  10  758
1477473468.918:   1075  77  10  758
1477473468.918:   1084  77  10  758
1477473468.919:   1094  77  10  758
1477473468.919:   1096  77  10  758
1477473468.919:   1086  77  10  758
1477473468.919:   1071  77  10  758
1477473468.919:   1059  77  10  758
1477473468.919:   1058  77  10  758
1477473468.919:   1068  77  10  758
1477473468.920:   1081  77  10  758
1477473468.920:   1083  77  10  758
1477473468.920:   1070  77  10  758
1477473468.920:   1047  77  10  758
1477473468.920:   1028  77  10  758
1477473468.921:   1023  77  10  758
1477473468.924:   1023  77  10  758
1477473468.925:   1010  77  10  758
1477473468.927:    972  77  10  758
1477473468.928:    921  77  10  758
1477473468.939:    875  77  10  758
1477473468.939:    839  77  10  758
1477473468.940:    782  77  10  758
1477473468.940:    672  77  10  758
1477473468.941:    508  77  10  758
1477473468.941:    327  77  10  758
1477473468.942:    159  77  10  758
1477473468.947:    -23  77  10  758
1477473468.957:   -266  77  10  758
1477473468.957:   -573  77  10  758
1477473468.958:   -880  77  10  758
1477473468.958:  -1119  77  10  758
1477473468.958:  -1290  77  10  758
1477473468.958:  -1444  77  10  758
1477473468.961:  -1587  77  10  758
1477473468.961:  -1654  77  10  758
1477473468.962:  -1583  77  10  758
1477473468.964:  -1397  77  10  758
1477473468.975:  -1161  77  10  758
1477473468.978:   -850  77  10  758
1477473468.978:   -328  77  10  758
1477473468.978:    495  77  10  758
1477473468.978:   1500  77  10  758
1477473468.979:   2412  77  10  758
1477473468.979:   3034  77  10  758
1477473468.980:   3406  77  10  758
1477473468.982:   3705  77  10  758
1477473468.984:   4006  77  10  758
1477473468.993:   4183  77  10  758
1477473468.993:   4065  77  10  758
1477473468.994:   3635  77  10  758
1477473468.994:   3051  77  10  758
1477473468.994:   2507  77  10  758
1477473468.997:   2091  77  10  758
1477473468.998:   1789  77  10  758
1477473469.001:   1567  77  10  758
1477473469.002:   1412  77  10  758
1477473469.004:   1321  77  10  758
1477473469.037:   1269  77  10  758
1477473469.040:   1233  77  10  758
1477473469.040:   1213  77  10  758
1477473469.040:   1217  77  10  758
1477473469.040:   1229  77  10  758
1477473469.043:   1203  77  10  758
1477473469.044:   1112  77  10  758
1477473469.044:    974  77  10  758
1477473469.045:    833  77  10  758
1477473469.047:    731  77  10  758
1477473469.048:    680  77  10  758
1477473469.048:    674  77  10  758
1477473469.049:    697  77  10  758
1477473469.050:    733  77  10  758
1477473469.050:    753  77  10  758
1477473469.051:    737  77  10  758
1477473469.052:    683  77  10  758
1477473469.052:    610  77  10  758
1477473469.053:    548  77  10  758
1477473469.053:    513  77  10  758
1477473469.054:    509  77  10  758
1477473469.055:    528  77  10  758
1477473469.056:    560  77  10  758
1477473469.056:    589  77  10  758
1477473469.071:    597  77  10  758
1477473469.071:    572  77  10  758
1477473469.072:    524  77  10  758
1477473469.073:    481  77  10  758
1477473469.074:    467  77  10  758
1477473469.074:    485  77  10  758
1477473469.075:    512  77  10  758
1477473469.075:    528  77  10  758
1477473469.076:    535  77  10  758
1477473469.077:    555  77  10  758
1477473469.089:    597  77  10  758
1477473469.089:    642  77  10  758
1477473469.090:    656  77  10  758
1477473469.091:    628  77  10  758
1477473469.091:    581  77  10  758
1477473469.092:    549  77  10  758
1477473469.093:    540  78  10  797
1477473469.094:    534  78  10  797
1477473469.095:    507  78  10  797
1477473469.095:    465  78  10  797
1477473469.106:    430  78  10  797
1477473469.107:    419  78  10  797
1477473469.107:    421  78  10  797
1477473469.107:    419  78  10  797
1477473469.108:    407  78  10  797
1477473469.108:    394  78  10  797
1477473469.108:    385  78  10  797
1477473469.108:    375  78  10  797
1477473469.111:    358  78  10  797
1477473469.111:    338  78  10  797
1477473469.112:    323  78  10  797
1477473469.114:    316  78  10  797
1477473469.115:    311  78  10  797
1477473469.118:    300  78  10  797
1477473469.120:    285  78  10  797
1477473469.124:    268  78  10  797
1477473469.125:    248  78  10  797
1477473469.126:    221  78  10  797
1477473469.129:    187  78  10  797
1477473469.130:    156  78  10  797
1477473469.150:    137  78  10  797
1477473469.151:    124  78  10  797
1477473469.151:    104  78  10  797
1477473469.151:     67  78  10  797
1477473469.152:     19  78  10  797
1477473469.152:    -24  78  10  797
1477473469.152:    -51  78  10  797
1477473469.153:    -68  78  10  797
1477473469.153:    -93  78  10  797
1477473469.153:   -139  78  10  797
1477473469.154:   -197  78  10  797
1477473469.154:   -247  78  10  797
1477473469.155:   -274  78  10  797
1477473469.156:   -292  78  10  797
1477473469.162:   -327  78  10  797
1477473469.162:   -391  78  10  797
1477473469.175:   -472  78  10  797
1477473469.177:   -539  78  10  797
1477473469.178:   -577  78  10  797
1477473469.178:   -595  78  10  797
1477473469.179:   -618  78  10  797
1477473469.180:   -660  78  10  797
1477473469.181:   -711  78  10  797
1477473469.181:   -749  78  10  797
1477473469.182:   -759  78  10  797
1477473469.183:   -747  78  10  797
1477473469.184:   -732  78  10  797
1477473469.184:   -736  78  10  797
1477473469.186:   -766  78  10  797
1477473469.188:   -809  78  10  797
1477473469.196:   -845  78  10  797
1477473469.197:   -860  78  10  797
1477473469.197:   -858  78  10  797
1477473469.198:   -861  78  10  797
1477473469.198:   -888  78  10  797
1477473469.200:   -936  78  10  797
1477473469.201:   -979  78  10  797
1477473469.204:   -990  78  10  797
1477473469.206:   -963  78  10  797
1477473469.207:   -915  78  10  797
1477473469.224:   -872  78  10  797
1477473469.224:   -848  78  10  797
1477473469.225:   -838  78  10  797
1477473469.226:   -825  78  10  797
1477473469.227:   -799  78  10  797
1477473469.228:   -763  78  10  797
1477473469.229:   -729  78  10  797
1477473469.230:   -706  78  10  797
1477473469.231:   -685  78  10  797
1477473469.231:   -646  78  10  797
1477473469.232:   -572  78  10  797
1477473469.232:   -461  78  10  797
1477473469.233:   -328  78  10  797
1477473469.235:   -189  78  10  797
1477473469.244:    -53  78  10  797
1477473469.245:     84  78  10  797
1477473469.245:    223  78  10  797
1477473469.245:    359  78  10  797
1477473469.246:    481  78  10  797
1477473469.247:    586  78  10  797
1477473469.253:    683  78  10  797
1477473469.257:    788  78  10  797
1477473469.263:    911  78  10  797
1477473469.263:   1050  78  10  797
1477473469.263:   1195  78  10  797
1477473469.263:   1336  78  10  797
1477473469.263:   1474  78  10  797
1477473469.263:   1610  78  10  797
1477473469.266:   1740  78  10  797
1477473469.267:   1850  78  10  797
1477473469.271:   1928  78  10  797
1477473469.271:   1971  78  10  797
1477473469.291:   1992  78  10  797
1477473469.291:   2002  78  10  797
1477473469.291:   2001  78  10  797
1477473469.291:   1985  78  10  797
1477473469.292:   1956  78  10  797
1477473469.292:   1932  78  10  797
1477473469.292:   1934  78  10  797
1477473469.292:   1970  78  10  797
1477473469.292:   2016  78  10  797
1477473469.294:   2043  78  10  797
1477473469.294:   2046  78  10  797
1477473469.295:   2042  78  10  797
1477473469.296:   2057  78  10  797
1477473469.298:   2082  78  10  797
1477473469.303:   2090  78  10  797
1477473469.304:   2065  78  10  797
1477473469.306:   2022  78  10  797
1477473469.306:   1997  78  10  797
1477473469.308:   2005  78  10  797
1477473469.312:   2029  78  10  797
1477473469.321:   2038  78  10  797
1477473469.322:   2022  78  10  797
1477473469.323:   1994  78  10  797
1477473469.323:   1968  78  10  797
1477473469.324:   1944  78  10  797
1477473469.325:   1915  78  10  797
1477473469.325:   1878  78  10  797
1477473469.326:   1844  78  10  797
1477473469.333:   1824  78  10  797
1477473469.334:   1822  78  10  797
1477473469.342:   1833  78  10  797
1477473469.343:   1853  78  10  797
1477473469.343:   1876  78  10  797
1477473469.346:   1897  78  10  797
1477473469.348:   1906  78  10  797
1477473469.349:   1901  78  10  797
1477473469.350:   1889  78  10  797
1477473469.350:   1881  78  10  797
1477473469.351:   1880  78  10  797
1477473469.351:   1871  78  10  797
1477473469.353:   1840  78  10  797
1477473469.354:   1790  78  10  797
1477473469.355:   1740  78  10  797
1477473469.358:   1703  78  10  797
1477473469.359:   1675  78  10  797
1477473469.362:   1642  78  10  797
1477473469.377:   1601  78  10  797
1477473469.378:   1570  78  10  797
1477473469.378:   1566  78  10  797
1477473469.379:   1587  78  10  797
1477473469.380:   1618  78  10  797
1477473469.380:   1648  78  10  797
1477473469.381:   1673  78  10  797
1477473469.386:   1688  78  10  797
1477473469.394:   1679  78  10  797
1477473469.463:   1641  78  10  797
1477473469.471:   1589  78  10  797
1477473469.472:   1544  78  10  797
1477473469.472:   1511  78  10  797
1477473469.472:   1477  78  10  797
1477473469.472:   1436  78  10  797
1477473469.472:   1402  78  10  797
1477473469.473:   1398  78  10  797
1477473469.473:   1429  78  10  797
1477473469.473:   1474  78  10  797
1477473469.473:   1502  78  10  797
1477473469.473:   1504  78  10  797
1477473469.474:   1494  78  10  797
1477473469.474:   1490  78  10  797
1477473469.474:   1491  78  10  797
1477473469.474:   1484  78  10  797
1477473469.474:   1467  78  10  797
1477473469.474:   1451  78  10  797
1477473469.474:   1446  78  10  797
1477473469.475:   1444  78  10  797
1477473469.475:   1433  78  10  797
1477473469.475:   1410  78  10  797
1477473469.475:   1392  78  10  797
1477473469.475:   1396  78  10  797
1477473469.475:   1411  78  10  797
1477473469.475:   1413  78  10  797
1477473469.476:   1390  78  10  797
1477473469.476:   1357  78  10  797
1477473469.476:   1339  78  10  797
1477473469.476:   1342  78  10  797
1477473469.477:   1349  78  10  797
1477473469.477:   1343  78  10  797
1477473469.477:   1327  78  10  797
1477473469.477:   1321  78  10  797
1477473469.477:   1334  78  10  797
1477473469.477:   1358  78  10  797
1477473469.478:   1379  78  10  797
1477473469.478:   1391  78  10  797
1477473469.478:   1396  78  10  797
1477473469.478:   1399  78  10  797
1477473469.478:   1398  78  10  797
1477473469.478:   1393  78  10  797
1477473469.478:   1387  78  10  797
1477473469.479:   1382  78  10  797
1477473469.479:   1376  78  10  797
1477473469.479:   1369  78  10  797
1477473469.479:   1363  78  10  797
1477473469.479:   1363  78  10  797
1477473469.481:   1365  78  10  797
1477473469.481:   1357  78  10  797
1477473469.483:   1335  78  10  797
1477473469.483:   1302  78  10  797
1477473469.484:   1273  78  10  797
1477473469.485:   1253  78  10  797
1477473469.486:   1238  78  10  797
1477473469.504:   1218  78  10  797
1477473469.504:   1193  78  10  797
1477473469.505:   1167  78  10  797
1477473469.505:   1149  78  10  797
1477473469.505:   1141  78  10  797
1477473469.505:   1139  78  10  797
1477473469.505:   1140  78  10  797
1477473469.506:   1144  78  10  797
1477473469.506:   1153  78  10  797
1477473469.506:   1170  78  10  797
1477473469.508:   1192  78  10  797
1477473469.513:   1210  78  10  797
1477473469.513:   1217  78  10  797
1477473469.514:   1215  78  10  797
1477473469.516:   1213  78  10  797
1477473469.521:   1219  78  10  797
1477473469.521:   1226  78  10  797
1477473469.522:   1222  78  10  797
1477473469.523:   1204  78  10  797
1477473469.525:   1182  78  10  797
1477473469.530:   1172  78  10  797
1477473469.530:   1176  78  10  797
1477473469.555:   1185  78  10  797
1477473469.555:   1189  78  10  797
1477473469.556:   1190  78  10  797
1477473469.556:   1196  78  10  797
1477473469.557:   1204  78  10  797
1477473469.558:   1202  78  10  797
1477473469.558:   1178  78  10  797
1477473469.558:   1138  78  10  797
1477473469.558:   1100  78  10  797
1477473469.558:   1080  78  10  797
1477473469.560:   1072  78  10  797
1477473469.561:   1056  78  10  797
1477473469.561:   1019  78  10  797
1477473469.561:    975  78  10  797
1477473469.561:    948  78  10  797
1477473469.562:    951  78  10  797
1477473469.562:    970  78  10  797
1477473469.568:    984  78  10  797
1477473469.578:    985  78  10  797
1477473469.579:    976  78  10  797
1477473469.582:    956  78  10  797
1477473469.582:    916  78  10  797
1477473469.582:    854  78  10  797
1477473469.583:    786  78  10  797
1477473469.585:    726  78  10  797
1477473469.586:    670  78  10  797
1477473469.595:    607  78  10  797
1477473469.595:    539  78  10  797
1477473469.595:    491  78  10  797
1477473469.595:    489  78  10  797
1477473469.595:    530  78  10  797
1477473469.595:    589  78  10  797
1477473469.596:    650  78  10  797
1477473469.607:    714  78  10  797
1477473469.607:    784  78  10  797
1477473469.608:    844  78  10  797
1477473469.608:    873  78  10  797
1477473469.608:    875  78  10  797
1477473469.608:    885  78  10  797
1477473469.609:    924  78  10  797
1477473469.613:    978  78  10  797
1477473469.614:   1006  78  10  797
1477473469.616:    995  78  10  797
1477473469.617:    971  78  10  797
1477473469.619:    974  78  10  797
1477473469.620:   1013  78  10  797
1477473469.632:   1061  78  10  797
1477473469.633:   1096  78  10  797
1477473469.634:   1117  78  10  797
1477473469.634:   1140  78  10  797
1477473469.635:   1171  78  10  797
1477473469.635:   1207  78  10  797
1477473469.636:   1238  78  10  797
1477473469.637:   1261  78  10  797
1477473469.641:   1269  78  10  797
1477473469.641:   1253  78  10  797
1477473469.643:   1220  78  10  797
1477473469.644:   1187  78  10  797
1477473469.645:   1166  78  10  797
1477473469.648:   1154  78  10  797
1477473469.651:   1141  78  10  797
1477473469.655:   1133  78  10  797
1477473469.668:   1147  78  10  797
1477473469.669:   1186  78  10  797
1477473469.670:   1228  78  10  797
1477473469.672:   1240  78  10  797
1477473469.672:   1218  78  10  797
1477473469.673:   1186  78  10  797
1477473469.675:   1169  78  10  797
1477473469.676:   1167  78  10  797
1477473469.686:   1163  78  10  797
1477473469.686:   1147  78  10  797
1477473469.686:   1127  78  10  797
1477473469.687:   1119  78  10  797
1477473469.687:   1131  78  10  797
1477473469.687:   1154  78  10  797
1477473469.687:   1170  78  10  797
1477473469.688:   1166  78  10  797
1477473469.688:   1145  78  10  797
1477473469.688:   1119  78  10  797
1477473469.690:   1091  78  10  797
1477473469.692:   1049  78  10  797
1477473469.695:    982  78  10  797
1477473469.702:    899  78  10  797
1477473469.703:    823  78  10  797
1477473469.704:    758  78  10  797
1477473469.720:    683  78  10  797
1477473469.722:    573  78  10  797
1477473469.724:    432  78  10  797
1477473469.724:    267  78  10  797
1477473469.725:     73  78  10  797
1477473469.725:   -166  78  10  797
1477473469.726:   -447  78  10  797
1477473469.727:   -741  78  10  797
1477473469.727:  -1012  78  10  797
1477473469.727:  -1250  78  10  797
1477473469.738:  -1451  78  10  797
1477473469.739:  -1588  78  10  797
1477473469.739:  -1617  78  10  797
1477473469.740:  -1521  78  10  797
1477473469.740:  -1323  78  10  797
1477473469.741:  -1032  78  10  797
1477473469.741:   -595  78  10  797
1477473469.741:     63  78  10  797
1477473469.742:    936  78  10  797
1477473469.742:   1885  78  10  797
1477473469.742:   2709  78  10  797
1477473469.745:   3293  78  10  797
1477473469.755:   3670  78  10  797
1477473469.756:   3953  78  10  797
1477473469.757:   4183  78  10  797
1477473469.757:   4277  78  10  797
1477473469.758:   4111  78  10  797
1477473469.758:   3665  78  10  797
1477473469.759:   3076  78  10  797
1477473469.759:   2548  78  10  797
1477473469.761:   2193  78  10  797
1477473469.762:   1976  78  10  797
1477473469.772:   1796  78  10  797
1477473469.773:   1610  78  10  797
1477473469.773:   1460  78  10  797
1477473469.774:   1393  78  10  797
1477473469.776:   1393  78  10  797
1477473469.777:   1395  78  10  797
1477473469.779:   1357  78  10  797
1477473469.783:   1286  78  10  797
1477473469.790:   1212  78  10  797
1477473469.790:   1137  78  10  797
1477473469.790:   1038  78  10  797
1477473469.790:    921  78  10  797
1477473469.790:    825  78  10  797
1477473469.790:    794  78  10  797
1477473469.792:    835  78  10  797
1477473469.793:    910  78  10  797
1477473469.796:    959  78  10  797
1477473469.797:    946  78  10  797
1477473469.801:    876  78  10  797
1477473469.801:    786  78  10  797
1477473469.809:    712  78  10  797
1477473469.809:    671  78  10  797
1477473469.810:    658  78  10  797
1477473469.810:    665  78  10  797
1477473469.810:    688  78  10  797
1477473469.815:    719  78  10  797
1477473469.815:    741  78  10  797
1477473469.817:    738  78  10  797
1477473469.818:    713  78  10  797
1477473469.821:    683  78  10  797
1477473469.828:    658  78  10  797
1477473469.828:    627  78  10  797
1477473469.830:    581  78  10  797
1477473469.831:    537  78  10  797
1477473469.836:    528  78  10  797
1477473469.840:    566  78  10  797
1477473469.847:    622  78  10  797
1477473469.847:    657  78  10  797
1477473469.848:    666  78  10  797
1477473469.849:    678  78  10  797
1477473469.849:    714  78  10  797
1477473469.850:    758  78  10  797
1477473469.851:    783  78  10  797
1477473469.852:    784  78  10  797
1477473469.852:    788  78  10  797
1477473469.853:    805  78  10  797
1477473469.864:    819  78  10  797
1477473469.864:    803  78  10  797
1477473469.864:    762  78  10  797
1477473469.864:    728  78  10  797
1477473469.865:    721  78  10  797
1477473469.865:    722  78  10  797
1477473469.866:    704  78  10  797
1477473469.870:    663  78  10  797
1477473469.870:    629  78  10  797
1477473469.872:    627  78  10  797
1477473469.874:    649  78  10  797
1477473469.879:    660  78  10  797
1477473469.889:    637  78  10  797
1477473469.890:    590  79  10  798
1477473469.890:    543  79  10  798
1477473469.891:    518  79  10  798
1477473469.891:    509  79  10  798
1477473469.891:    498  79  10  798
1477473469.893:    471  79  10  798
1477473469.893:    432  79  10  798
1477473469.894:    401  79  10  798
1477473469.896:    393  79  10  798
1477473469.907:    401  79  10  798
1477473469.908:    406  79  10  798
1477473469.908:    392  79  10  798
1477473469.931:    361  79  10  798
1477473469.931:    325  79  10  798
1477473469.933:    295  79  10  798
1477473469.934:    269  79  10  798
1477473469.936:    245  79  10  798
1477473469.951:    221  79  10  798
1477473469.951:    195  79  10  798
1477473469.951:    163  79  10  798
1477473469.952:    122  79  10  798
1477473469.952:     84  79  10  798
1477473469.952:     62  79  10  798
1477473469.952:     55  79  10  798
1477473469.952:     46  79  10  798
1477473469.952:     17  79  10  798
1477473469.952:    -30  79  10  798
1477473469.953:    -79  79  10  798
1477473469.953:   -120  79  10  798
1477473469.953:   -162  79  10  798
1477473469.953:   -220  79  10  798
1477473469.953:   -289  79  10  798
1477473469.953:   -350  79  10  798
1477473469.953:   -394  79  10  798
1477473469.953:   -428  79  10  798
1477473469.954:   -461  79  10  798
1477473469.954:   -488  79  10  798
1477473469.954:   -501  79  10  798
1477473469.955:   -506  79  10  798
1477473469.957:   -525  79  10  798
1477473469.958:   -562  79  10  798
1477473469.962:   -603  79  10  798
1477473469.962:   -625  79  10  798
1477473469.964:   -631  79  10  798
1477473469.967:   -637  79  10  798
1477473469.968:   -651  79  10  798
1477473469.969:   -652  79  10  798
1477473469.972:   -623  79  10  798
1477473469.974:   -574  79  10  798
1477473469.975:   -533  79  10  798
1477473469.980:   -513  79  10  798
1477473469.992:   -501  79  10  798
1477473469.993:   -481  79  10  798
1477473469.993:   -458  79  10  798
1477473469.994:   -447  79  10  798
1477473469.994:   -443  79  10  798
1477473469.995:   -415  79  10  798
1477473469.996:   -343  79  10  798
1477473469.999:   -239  79  10  798
1477473470.000:   -131  79  10  798
1477473470.001:    -23  79  10  798
1477473470.002:    109  79  10  798
1477473470.003:    281  79  10  798
1477473470.003:    468  79  10  798
1477473470.007:    626  79  10  798
1477473470.014:    743  79  10  798
1477473470.044:    846  79  10  798
1477473470.044:    964  79  10  798
1477473470.044:   1091  79  10  798
1477473470.045:   1191  79  10  798
1477473470.045:   1248  79  10  798
1477473470.045:   1288  79  10  798
1477473470.046:   1345  79  10  798
1477473470.046:   1426  79  10  798
1477473470.046:   1511  79  10  798
1477473470.047:   1582  79  10  798
1477473470.049:   1648  79  10  798
1477473470.051:   1725  79  10  798
1477473470.052:   1808  79  10  798
1477473470.063:   1879  79  10  798
1477473470.063:   1928  79  10  798
1477473470.063:   1957  79  10  798
1477473470.063:   1970  79  10  798
1477473470.063:   1972  79  10  798
1477473470.063:   1967  79  10  798
1477473470.064:   1964  79  10  798
1477473470.064:   1965  79  10  798
1477473470.064:   1962  79  10  798
1477473470.064:   1946  79  10  798
1477473470.064:   1925  79  10  798
1477473470.064:   1908  79  10  798
1477473470.064:   1900  79  10  798
1477473470.065:   1893  79  10  798
1477473470.065:   1884  79  10  798
1477473470.065:   1885  79  10  798
1477473470.066:   1906  79  10  798
1477473470.067:   1941  79  10  798
1477473470.069:   1974  79  10  798
1477473470.074:   1996  79  10  798
1477473470.075:   2012  79  10  798
1477473470.076:   2027  79  10  798
1477473470.108:   2028  79  10  798
1477473470.109:   2004  79  10  798
1477473470.110:   1958  79  10  798
1477473470.110:   1905  79  10  798
1477473470.111:   1858  79  10  798
1477473470.112:   1822  79  10  798
1477473470.112:   1799  79  10  798
1477473470.113:   1796  79  10  798
1477473470.114:   1817  79  10  798
1477473470.115:   1851  79  10  798
1477473470.127:   1872  79  10  798
1477473470.128:   1873  79  10  798
1477473470.128:   1864  79  10  798
1477473470.130:   1860  79  10  798
1477473470.131:   1858  79  10  798
1477473470.133:   1844  79  10  798
1477473470.144:   1806  79  10  798
1477473470.145:   1757  79  10  798
1477473470.146:   1718  79  10  798
1477473470.147:   1701  79  10  798
1477473470.147:   1698  79  10  798
1477473470.148:   1695  79  10  798
1477473470.149:   1680  79  10  798
1477473470.149:   1659  79  10  798
1477473470.149:   1641  79  10  798
1477473470.149:   1636  79  10  798
1477473470.150:   1643  79  10  798
1477473470.150:   1648  79  10  798
1477473470.150:   1639  79  10  798
1477473470.151:   1610  79  10  798
1477473470.161:   1568  79  10  798
1477473470.162:   1529  79  10  798
1477473470.162:   1501  79  10  798
1477473470.162:   1482  79  10  798
1477473470.163:   1454  79  10  798
1477473470.165:   1407  79  10  798
1477473470.165:   1352  79  10  798
1477473470.165:   1314  79  10  798
1477473470.165:   1310  79  10  798
1477473470.165:   1327  79  10  798
1477473470.166:   1342  79  10  798
1477473470.166:   1341  79  10  798
1477473470.166:   1332  79  10  798
1477473470.166:   1334  79  10  798
1477473470.167:   1347  79  10  798
1477473470.167:   1358  79  10  798
1477473470.167:   1356  79  10  798
1477473470.170:   1342  79  10  798
1477473470.179:   1324  79  10  798
1477473470.180:   1304  79  10  798
1477473470.180:   1281  79  10  798
1477473470.180:   1255  79  10  798
1477473470.184:   1231  79  10  798
1477473470.184:   1219  79  10  798
1477473470.185:   1224  79  10  798
1477473470.185:   1247  79  10  798
1477473470.190:   1283  79  10  798
1477473470.263:   1317  79  10  798
1477473470.263:   1333  79  10  798
1477473470.265:   1330  79  10  798
1477473470.265:   1320  79  10  798
1477473470.265:   1310  79  10  798
1477473470.265:   1292  79  10  798
1477473470.266:   1253  79  10  798
1477473470.266:   1198  79  10  798
1477473470.266:   1151  79  10  798
1477473470.266:   1130  79  10  798
1477473470.266:   1127  79  10  798
1477473470.267:   1118  79  10  798
1477473470.267:   1102  79  10  798
1477473470.267:   1103  79  10  798
1477473470.267:   1136  79  10  798
1477473470.267:   1183  79  10  798
1477473470.268:   1209  79  10  798
1477473470.268:   1203  79  10  798
1477473470.268:   1191  79  10  798
1477473470.269:   1200  79  10  798
1477473470.269:   1231  79  10  798
1477473470.269:   1254  79  10  798
1477473470.269:   1247  79  10  798
1477473470.269:   1217  79  10  798
1477473470.270:   1186  79  10  798
1477473470.270:   1164  79  10  798
1477473470.270:   1141  79  10  798
1477473470.270:   1108  79  10  798
1477473470.270:   1070  79  10  798
1477473470.271:   1045  79  10  798
1477473470.271:   1043  79  10  798
1477473470.272:   1057  79  10  798
1477473470.272:   1068  79  10  798
1477473470.273:   1068  79  10  798
1477473470.273:   1069  79  10  798
1477473470.273:   1085  79  10  798
1477473470.274:   1118  79  10  798
1477473470.274:   1145  79  10  798
1477473470.275:   1143  79  10  798
1477473470.275:   1110  79  10  798
1477473470.275:   1071  79  10  798
1477473470.275:   1054  79  10  798
1477473470.275:   1062  79  10  798
1477473470.276:   1074  79  10  798
1477473470.276:   1068  79  10  798
1477473470.277:   1048  79  10  798
1477473470.278:   1034  79  10  798
1477473470.284:   1041  79  10  798
1477473470.284:   1056  79  10  798
1477473470.286:   1062  79  10  798
1477473470.289:   1058  79  10  798
1477473470.291:   1062  79  10  798
1477473470.293:   1087  79  10  798
1477473470.293:   1123  79  10  798
1477473470.298:   1147  79  10  798
1477473470.313:   1150  79  10  798
1477473470.313:   1136  79  10  798
1477473470.313:   1116  79  10  798
1477473470.314:   1096  79  10  798
1477473470.314:   1078  79  10  798
1477473470.315:   1065  79  10  798
1477473470.315:   1057  79  10  798
1477473470.315:   1046  79  10  798
1477473470.316:   1022  79  10  798
1477473470.317:    992  79  10  798
1477473470.317:    979  79  10  798
1477473470.319:    997  79  10  798
1477473470.322:   1029  79  10  798
1477473470.323:   1045  79  10  798
1477473470.325:   1035  79  10  798
1477473470.326:   1018  79  10  798
1477473470.334:   1020  79  10  798
1477473470.335:   1040  79  10  798
1477473470.335:   1050  79  10  798
1477473470.336:   1021  79  10  798
1477473470.340:    948  79  10  798
1477473470.340:    849  79  10  798
1477473470.341:    746  79  10  798
1477473470.342:    652  79  10  798
1477473470.344:    575  79  10  798
1477473470.347:    521  79  10  798
1477473470.349:    496  79  10  798
1477473470.353:    506  79  10  798
1477473470.354:    551  79  10  798
1477473470.355:    622  79  10  798
1477473470.356:    704  79  10  798
1477473470.357:    783  79  10  798
1477473470.360:    853  79  10  798
1477473470.362:    911  79  10  798
1477473470.367:    952  79  10  798
1477473470.367:    969  79  10  798
1477473470.375:    959  79  10  798
1477473470.375:    935  79  10  798
1477473470.376:    918  79  10  798
1477473470.377:    919  79  10  798
1477473470.377:    930  79  10  798
1477473470.381:    943  79  10  798
1477473470.382:    958  79  10  798
1477473470.382:    984  79  10  798
1477473470.394:   1024  79  10  798
1477473470.394:   1067  79  10  798
1477473470.395:   1099  79  10  798
1477473470.400:   1117  79  10  798
1477473470.401:   1129  79  10  798
1477473470.401:   1141  79  10  798
1477473470.402:   1153  79  10  798
1477473470.402:   1169  79  10  798
1477473470.402:   1190  79  10  798
1477473470.402:   1221  79  10  798
1477473470.404:   1253  79  10  798
1477473470.408:   1274  79  10  798
1477473470.409:   1281  79  10  798
1477473470.411:   1280  79  10  798
1477473470.412:   1275  79  10  798
1477473470.414:   1259  79  10  798
1477473470.415:   1227  79  10  798
1477473470.418:   1182  79  10  798
1477473470.423:   1141  79  10  798
1477473470.424:   1117  79  10  798
1477473470.426:   1109  79  10  798
1477473470.427:   1108  79  10  798
1477473470.451:   1111  79  10  798
1477473470.451:   1122  79  10  798
1477473470.451:   1141  79  10  798
1477473470.451:   1160  79  10  798
1477473470.452:   1168  79  10  798
1477473470.452:   1164  79  10  798
1477473470.452:   1157  79  10  798
1477473470.452:   1154  79  10  798
1477473470.453:   1149  79  10  798
1477473470.453:   1133  79  10  798
1477473470.453:   1105  79  10  798
1477473470.453:   1081  79  10  798
1477473470.454:   1081  79  10  798
1477473470.456:   1097  79  10  798
1477473470.456:   1104  79  10  798
1477473470.456:   1077  79  10  798
1477473470.458:   1014  79  10  798
1477473470.460:    935  79  10  798
1477473470.462:    852  79  10  798
1477473470.464:    755  79  10  798
1477473470.474:    626  79  10  798
1477473470.474:    465  79  10  798
1477473470.475:    280  79  10  798
1477473470.475:     65  79  10  798
1477473470.475:   -188  79  10  798
1477473470.476:   -470  79  10  798
1477473470.478:   -748  79  10  798
1477473470.482:   -989  79  10  798
1477473470.482:  -1188  79  10  798
1477473470.484:  -1354  79  10  798
1477473470.485:  -1471  79  10  798
1477473470.490:  -1492  79  10  798
1477473470.491:  -1397  79  10  798
1477473470.492:  -1206  79  10  798
1477473470.496:   -940  79  10  798
1477473470.497:   -546  79  10  798
1477473470.498:     70  79  10  798
1477473470.499:    928  79  10  798
1477473470.501:   1887  79  10  798
1477473470.504:   2722  79  10  798
1477473470.505:   3296  79  10  798
1477473470.509:   3660  79  10  798
1477473470.520:   3956  79  10  798
1477473470.521:   4229  79  10  798
1477473470.521:   4367  79  10  798
1477473470.522:   4217  79  10  798
1477473470.522:   3769  79  10  798
1477473470.523:   3186  79  10  798
1477473470.524:   2675  79  10  798
1477473470.525:   2333  79  10  798
1477473470.526:   2119  79  10  798
1477473470.528:   1954  79  10  798
1477473470.538:   1812  79  10  798
1477473470.538:   1710  79  10  798
1477473470.539:   1655  79  10  798
1477473470.539:   1615  79  10  798
1477473470.539:   1568  79  10  798
1477473470.539:   1518  79  10  798
1477473470.541:   1474  79  10  798
1477473470.546:   1421  79  10  798
1477473470.548:   1329  79  10  798
1477473470.549:   1193  79  10  798
1477473470.550:   1059  79  10  798
1477473470.551:    983  79  10  798
1477473470.557:    978  79  10  798
1477473470.559:   1010  79  10  798
1477473470.561:   1044  79  10  798
1477473470.562:   1064  79  10  798
1477473470.564:   1060  79  10  798
1477473470.565:   1021  79  10  798
1477473470.566:    940  79  10  798
1477473470.568:    842  79  10  798
1477473470.568:    775  79  10  798
1477473470.573:    768  79  10  798
1477473470.582:    805  79  10  798
1477473470.584:    848  79  10  798
1477473470.585:    874  79  10  798
1477473470.585:    889  79  10  798
1477473470.587:    900  79  10  798
1477473470.588:    898  79  10  798
1477473470.588:    869  79  10  798
1477473470.589:    822  79  10  798
1477473470.615:    787  79  10  798
1477473470.615:    784  79  10  798
1477473470.616:    806  79  10  798
1477473470.616:    822  79  10  798
1477473470.618:    816  79  10  798
1477473470.619:    799  79  10  798
1477473470.620:    789  79  10  798
1477473470.621:    795  79  10  798
1477473470.622:    807  79  10  798
1477473470.623:    813  79  10  798
1477473470.624:    814  79  10  798
1477473470.624:    818  79  10  798
1477473470.625:    833  79  10  798
1477473470.625:    853  79  10  798
1477473470.651:    862  79  10  798
1477473470.651:    847  79  10  798
1477473470.652:    806  79  10  798
1477473470.652:    750  79  10  798
1477473470.652:    694  79  10  798
1477473470.652:    645  79  10  798
1477473470.653:    605  79  10  798
1477473470.653:    579  79  10  798
1477473470.653:    570  79  10  798
1477473470.653:    578  79  10  798
1477473470.653:    592  79  10  798
1477473470.654:    604  79  10  798
1477473470.654:    612  79  10  798
1477473470.654:    617  79  10  798
1477473470.655:    617  73   9  790
1477473470.655:    604  73   9  790
1477473470.655:    580  73   9  790
1477473470.655:    551  73   9  790
1477473470.656:    527  73   9  790
1477473470.657:    508  73   9  790
1477473470.658:    492  73   9  790
1477473470.660:    481  73   9  790
1477473470.661:    472  73   9  790
1477473470.662:    460  73   9  790
1477473470.664:    436  73   9  790
1477473470.665:    403  73   9  790
1477473470.666:    373  73   9  790
1477473470.669:    354  73   9  790
1477473470.673:    341  73   9  790
1477473470.674:    321  73   9  790
1477473470.689:    293  73   9  790
1477473470.689:    269  73   9  790
1477473470.690:    258  73   9  790
1477473470.690:    251  73   9  790
1477473470.690:    232  73   9  790
1477473470.691:    193  73   9  790
1477473470.691:    143  73   9  790
1477473470.691:     94  73   9  790
1477473470.692:     49  73   9  790
1477473470.693:      4  73   9  790
1477473470.694:    -45  73   9  790
1477473470.697:    -91  73   9  790
1477473470.708:   -124  73   9  790
1477473470.708:   -141  73   9  790
1477473470.708:   -153  73   9  790
1477473470.709:   -173  73   9  790
1477473470.709:   -204  73   9  790
1477473470.709:   -242  73   9  790
1477473470.710:   -278  73   9  790
1477473470.712:   -307  73   9  790
1477473470.716:   -334  73   9  790
1477473470.717:   -366  73   9  790
1477473470.727:   -412  73   9  790
1477473470.727:   -467  73   9  790
1477473470.728:   -513  73   9  790
1477473470.728:   -533  73   9  790
1477473470.728:   -521  73   9  790
1477473470.729:   -493  73   9  790
1477473470.730:   -468  73   9  790
1477473470.733:   -449  73   9  790
1477473470.734:   -430  73   9  790
1477473470.735:   -405  73   9  790
1477473470.747:   -384  73   9  790
1477473470.747:   -375  73   9  790
1477473470.748:   -378  73   9  790
1477473470.748:   -381  73   9  790
1477473470.749:   -376  73   9  790
1477473470.750:   -362  73   9  790
1477473470.750:   -333  73   9  790
1477473470.750:   -280  73   9  790
1477473470.753:   -195  73   9  790
1477473470.755:    -85  73   9  790
1477473470.756:     37  73   9  790
1477473470.761:    164  73   9  790
1477473470.761:    300  73   9  790
1477473470.764:    441  73   9  790
1477473470.776:    576  73   9  790
1477473470.776:    698  73   9  790
1477473470.776:    815  73   9  790
1477473470.776:    938  73   9  790
1477473470.777:   1067  73   9  790
1477473470.777:   1187  73   9  790
1477473470.777:   1286  73   9  790
1477473470.778:   1370  73   9  790
1477473470.781:   1455  73   9  790
1477473470.783:   1548  73   9  790
1477473470.784:   1646  73   9  790
1477473470.787:   1743  73   9  790
1477473470.788:   1839  73   9  790
1477473470.790:   1939  73   9  790
1477473470.791:   2039  73   9  790
1477473470.794:   2129  73   9  790
1477473470.795:   2198  73   9  790
1477473470.802:   2247  73   9  790
1477473470.811:   2282  73   9  790
1477473470.812:   2310  73   9  790
1477473470.812:   2335  73   9  790
1477473470.813:   2358  73   9  790
1477473470.813:   2386  73   9  790
1477473470.815:   2423  73   9  790
1477473470.815:   2465  73   9  790
1477473470.816:   2503  73   9  790
1477473470.817:   2529  73   9  790
1477473470.819:   2544  73   9  790
1477473470.832:   2558  73   9  790
1477473470.832:   2575  73   9  790
1477473470.833:   2585  73   9  790
1477473470.834:   2579  73   9  790
1477473470.835:   2558  73   9  790
1477473470.836:   2541  73   9  790
1477473470.837:   2544  73   9  790
1477473470.838:   2559  73   9  790
1477473470.851:   2567  73   9  790
1477473470.852:   2553  73   9  790
1477473470.852:   2526  73   9  790
1477473470.852:   2503  73   9  790
1477473470.852:   2487  73   9  790
1477473470.852:   2467  73   9  790
1477473470.852:   2438  73   9  790
1477473470.853:   2407  73   9  790
1477473470.853:   2387  73   9  790
1477473470.854:   2383  73   9  790
1477473470.855:   2384  73   9  790
1477473470.856:   2384  73   9  790
1477473470.860:   2386  73   9  790
1477473470.861:   2394  73   9  790
1477473470.862:   2400  73   9  790
1477473470.865:   2389  73   9  790
1477473470.876:   2365  73   9  790
1477473470.877:   2346  73   9  790
1477473470.877:   2345  73   9  790
1477473470.878:   2347  73   9  790
1477473470.879:   2328  73   9  790
1477473470.880:   2285  73   9  790
1477473470.881:   2244  73   9  790
1477473470.884:   2229  73   9  790
1477473470.885:   2241  73   9  790
1477473470.887:   2254  73   9  790
1477473470.888:   2250  73   9  790
1477473470.889:   2238  73   9  790
1477473470.890:   2242  73   9  790
1477473470.893:   2266  73   9  790
1477473470.899:   2292  73   9  790
1477473470.900:   2297  73   9  790
1477473470.901:   2275  73   9  790
1477473470.901:   2241  73   9  790
1477473470.903:   2212  73   9  790
1477473470.904:   2193  73   9  790
1477473470.919:   2176  73   9  790
1477473470.919:   2151  73   9  790
1477473470.920:   2115  73   9  790
1477473470.921:   2072  73   9  790
1477473470.922:   2033  73   9  790
1477473470.922:   2006  73   9  790
1477473470.923:   1987  73   9  790
1477473470.924:   1964  73   9  790
1477473470.926:   1922  73   9  790
1477473470.926:   1865  73   9  790
1477473470.937:   1819  73   9  790
1477473470.938:   1813  73   9  790
1477473470.939:   1853  73   9  790
1477473470.940:   1908  73   9  790
1477473470.941:   1940  73   9  790
1477473470.941:   1936  73   9  790
1477473470.942:   1920  73   9  790
1477473470.942:   1921  73   9  790
1477473470.943:   1942  73   9  790
1477473470.944:   1954  73   9  790
1477473470.956:   1934  73   9  790
1477473471.042:   1886  73   9  790
1477473471.044:   1840  73   9  790
1477473471.044:   1821  73   9  790
1477473471.045:   1825  73   9  790
1477473471.045:   1831  73   9  790
1477473471.045:   1819  73   9  790
1477473471.045:   1796  73   9  790
1477473471.046:   1781  73   9  790
1477473471.046:   1788  73   9  790
1477473471.046:   1810  73   9  790
1477473471.046:   1829  73   9  790
1477473471.046:   1832  73   9  790
1477473471.047:   1824  73   9  790
1477473471.047:   1824  73   9  790
1477473471.047:   1840  73   9  790
1477473471.047:   1857  73   9  790
1477473471.047:   1854  73   9  790
1477473471.047:   1827  73   9  790
1477473471.048:   1796  73   9  790
1477473471.048:   1790  73   9  790
1477473471.048:   1812  73   9  790
1477473471.048:   1839  73   9  790
1477473471.049:   1848  73   9  790
1477473471.049:   1836  73   9  790
1477473471.049:   1821  73   9  790
1477473471.049:   1819  73   9  790
1477473471.049:   1824  73   9  790
1477473471.049:   1821  73   9  790
1477473471.049:   1804  73   9  790
1477473471.050:   1775  73   9  790
1477473471.050:   1743  73   9  790
1477473471.050:   1712  73   9  790
1477473471.050:   1682  73   9  790
1477473471.050:   1661  73   9  790
1477473471.050:   1653  73   9  790
1477473471.051:   1654  73   9  790
1477473471.051:   1657  73   9  790
1477473471.051:   1659  73   9  790
1477473471.051:   1667  73   9  790
1477473471.051:   1688  73   9  790
1477473471.051:   1714  73   9  790
1477473471.052:   1725  73   9  790
1477473471.052:   1710  73   9  790
1477473471.064:   1683  73   9  790
1477473471.064:   1664  73   9  790
1477473471.065:   1661  73   9  790
1477473471.065:   1660  73   9  790
1477473471.065:   1644  73   9  790
1477473471.065:   1618  73   9  790
1477473471.065:   1605  73   9  790
1477473471.065:   1621  73   9  790
1477473471.065:   1662  73   9  790
1477473471.066:   1706  73   9  790
1477473471.066:   1737  73   9  790
1477473471.066:   1748  73   9  790
1477473471.067:   1746  73   9  790
1477473471.067:   1740  73   9  790
1477473471.067:   1736  73   9  790
1477473471.067:   1728  73   9  790
1477473471.067:   1700  73   9  790
1477473471.067:   1646  73   9  790
1477473471.068:   1583  73   9  790
1477473471.070:   1539  73   9  790
1477473471.085:   1525  73   9  790
1477473471.086:   1527  73   9  790
1477473471.086:   1526  73   9  790
1477473471.086:   1532  73   9  790
1477473471.086:   1556  73   9  790
1477473471.086:   1572  73   9  790
1477473471.086:   1518  73   9  790
1477473471.086:   1347  73   9  790
1477473471.087:   1085  73   9  790
1477473471.087:    805  73   9  790
1477473471.093:    544  73   9  790
1477473471.093:    270  73   9  790
1477473471.095:    -71  73   9  790
1477473471.096:   -473  73   9  790
1477473471.099:   -867  73   9  790
1477473471.100:  -1179  73   9  790
1477473471.130:  -1395  73   9  790
1477473471.131:  -1555  73   9  790
1477473471.131:  -1703  73   9  790
1477473471.132:  -1848  73   9  790
1477473471.132:  -1976  73   9  790
1477473471.132:  -2074  73   9  790
1477473471.134:  -2149  73   9  790
1477473471.134:  -2213  73   9  790
1477473471.135:  -2275  73   9  790
1477473471.135:  -2341  73   9  790
1477473471.136:  -2418  73   9  790
1477473471.137:  -2514  73   9  790
1477473471.148:  -2625  73   9  790
1477473471.150:  -2727  73   9  790
1477473471.150:  -2794  73   9  790
1477473471.153:  -2820  73   9  790
1477473471.154:  -2825  73   9  790
1477473471.155:  -2838  73   9  790
1477473471.155:  -2863  73   9  790
1477473471.155:  -2879  73   9  790
1477473471.166:  -2865  73   9  790
1477473471.167:  -2820  73   9  790
1477473471.167:  -2757  73   9  790
1477473471.168:  -2685  73   9  790
1477473471.168:  -2603  73   9  790
1477473471.169:  -2519  73   9  790
1477473471.170:  -2451  73   9  790
1477473471.170:  -2410  73   9  790
1477473471.171:  -2388  73   9  790
1477473471.171:  -2367  73   9  790
1477473471.172:  -2340  73   9  790
1477473471.173:  -2315  73   9  790
1477473471.173:  -2296  73   9  790
1477473471.174:  -2272  73   9  790
1477473471.174:  -2220  73   9  790
1477473471.175:  -2133  73   9  790
1477473471.176:  -2025  73   9  790
1477473471.177:  -1924  73   9  790
1477473471.178:  -1846  73   9  790
1477473471.179:  -1794  73   9  790
1477473471.189:  -1755  73   9  790
1477473471.189:  -1722  73   9  790
1477473471.211:  -1691  73   9  790
1477473471.212:  -1656  73   9  790
1477473471.213:  -1610  73   9  790
1477473471.214:  -1558  73   9  790
1477473471.223:  -1515  73   9  790
1477473471.223:  -1493  73   9  790
1477473471.224:  -1480  73   9  790
1477473471.224:  -1447  73   9  790
1477473471.224:  -1381  73   9  790
1477473471.224:  -1313  73   9  790
1477473471.224:  -1277  73   9  790
1477473471.224:  -1277  73   9  790
1477473471.224:  -1269  73   9  790
1477473471.225:  -1216  73   9  790
1477473471.225:  -1133  73   9  790
1477473471.225:  -1067  73   9  790
1477473471.225:  -1047  73   9  790
1477473471.225:  -1053  73   9  790
1477473471.225:  -1046  73   9  790
1477473471.227:  -1019  73   9  790
1477473471.228:   -991  73   9  790
1477473471.231:   -978  73   9  790
1477473471.232:   -968  73   9  790
1477473471.232:   -943  73   9  790
1477473471.244:   -908  73   9  790
1477473471.245:   -872  73   9  790
1477473471.245:   -834  73   9  790
1477473471.247:   -788  73   9  790
1477473471.248:   -745  73   9  790
1477473471.249:   -735  73   9  790
1477473471.249:   -770  73   9  790
1477473471.251:   -836  73   9  790
1477473471.261:   -911  73   9  790
1477473471.261:  -1000  73   9  790
1477473471.262:  -1122  73   9  790
1477473471.263:  -1270  73   9  790
1477473471.264:  -1425  73   9  790
1477473471.265:  -1591  73   9  790
1477473471.265:  -1793  73   9  790
1477473471.266:  -2036  73   9  790
1477473471.267:  -2273  73   9  790
1477473471.268:  -2445  73   9  790
1477473471.278:  -2551  73   9  790
1477473471.279:  -2645  73   9  790
1477473471.280:  -2750  73   9  790
1477473471.280:  -2815  73   9  790
1477473471.281:  -2769  73   9  790
1477473471.281:  -2617  73   9  790
1477473471.282:  -2418  73   9  790
1477473471.283:  -2168  73   9  790
1477473471.283:  -1746  73   9  790
1477473471.286:  -1025  73   9  790
1477473471.295:    -46  73   9  790
1477473471.296:    955  73   9  790
1477473471.296:   1734  73   9  790
1477473471.297:   2243  73   9  790
1477473471.297:   2621  73   9  790
1477473471.298:   2980  73   9  790
1477473471.299:   3252  73   9  790
1477473471.300:   3248  73   9  790
1477473471.304:   2878  73   9  790
1477473471.304:   2267  73   9  790
1477473471.313:   1655  73   9  790
1477473471.314:   1205  73   9  790
1477473471.315:    915  73   9  790
1477473471.315:    709  73   9  790
1477473471.319:    551  73   9  790
1477473471.320:    470  73   9  790
1477473471.331:    481  73   9  790
1477473471.332:    542  73   9  790
1477473471.332:    584  73   9  790
1477473471.333:    583  73   9  790
1477473471.335:    556  73   9  790
1477473471.335:    510  73   9  790
1477473471.336:    424  73   9  790
1477473471.336:    281  73   9  790
1477473471.337:    106  73   9  790
1477473471.338:    -33  73   9  790
1477473471.338:    -91  73   9  790
1477473471.339:    -75  73   9  790
1477473471.345:    -21  73   9  790
1477473471.346:     44  73   9  790
1477473471.347:    110  73   9  790
1477473471.348:    162  73   9  790
1477473471.351:    172  73   9  790
1477473471.352:    127  73   9  790
1477473471.353:     47  73   9  790
1477473471.359:    -13  73   9  790
1477473471.360:    -21  73   9  790
1477473471.361:     10  73   9  790
1477473471.362:     38  73   9  790
1477473471.363:     41  73   9  790
1477473471.369:     35  73   9  790
1477473471.370:     42  73   9  790
1477473471.382:     60  73   9  790
1477473471.383:     70  73   9  790
1477473471.384:     68  73   9  790
1477473471.384:     78  73   9  790
1477473471.385:    118  73   9  790
1477473471.386:    170  73   9  790
1477473471.387:    193  73   9  790
1477473471.388:    173  73   9  790
1477473471.389:    139  73   9  790
1477473471.390:    127  73   9  790
1477473471.401:    141  73   9  790
1477473471.402:    147  73   9  790
1477473471.402:    124  73   9  790
1477473471.402:     87  73   9  790
1477473471.403:     66  73   9  790
1477473471.403:     66  73   9  790
1477473471.403:     59  73   9  790
1477473471.403:     26  73   9  790
1477473471.404:    -20  73   9  790
1477473471.407:    -42  78  10  785
1477473471.409:    -25  78  10  785
1477473471.414:     15  78  10  785
1477473471.422:     52  78  10  785
1477473471.422:     84  78  10  785
1477473471.423:    120  78  10  785
1477473471.423:    160  78  10  785
1477473471.424:    184  78  10  785
1477473471.424:    182  78  10  785
1477473471.428:    164  78  10  785
1477473471.428:    149  78  10  785
1477473471.429:    137  78  10  785
1477473471.431:    110  78  10  785
1477473471.441:     56  78  10  785
1477473471.441:     -7  78  10  785
1477473471.441:    -48  78  10  785
1477473471.442:    -57  78  10  785
1477473471.442:    -50  78  10  785
1477473471.443:    -49  78  10  785
1477473471.444:    -57  78  10  785
1477473471.445:    -69  78  10  785
1477473471.449:    -82  78  10  785
1477473471.450:   -104  78  10  785
1477473471.460:   -137  78  10  785
1477473471.460:   -176  78  10  785
1477473471.461:   -220  78  10  785
1477473471.461:   -280  78  10  785
1477473471.462:   -359  78  10  785
1477473471.462:   -439  78  10  785
1477473471.464:   -489  78  10  785
1477473471.468:   -495  78  10  785
1477473471.479:   -476  78  10  785
1477473471.483:   -459  78  10  785
1477473471.483:   -453  78  10  785
1477473471.483:   -445  78  10  785
1477473471.483:   -426  78  10  785
1477473471.484:   -411  78  10  785
1477473471.484:   -424  78  10  785
1477473471.484:   -472  78  10  785
1477473471.484:   -542  78  10  785
1477473471.485:   -615  78  10  785
1477473471.486:   -683  78  10  785
1477473471.489:   -747  78  10  785
1477473471.498:   -805  78  10  785
1477473471.498:   -850  78  10  785
1477473471.498:   -876  78  10  785
1477473471.499:   -887  78  10  785
1477473471.501:   -891  78  10  785
1477473471.501:   -893  78  10  785
1477473471.503:   -899  78  10  785
1477473471.505:   -911  78  10  785
1477473471.506:   -932  78  10  785
1477473471.511:   -959  78  10  785
1477473471.526:   -984  78  10  785
1477473471.526:  -1004  78  10  785
1477473471.526:  -1023  78  10  785
1477473471.526:  -1043  78  10  785
1477473471.527:  -1058  78  10  785
1477473471.527:  -1061  78  10  785
1477473471.527:  -1047  78  10  785
1477473471.527:  -1023  78  10  785
1477473471.528:  -1003  78  10  785
1477473471.528:   -983  78  10  785
1477473471.530:   -950  78  10  785
1477473471.531:   -894  78  10  785
1477473471.534:   -822  78  10  785
1477473471.536:   -751  78  10  785
1477473471.537:   -684  78  10  785
1477473471.542:   -610  78  10  785
1477473471.559:   -514  78  10  785
1477473471.559:   -397  78  10  785
1477473471.560:   -274  78  10  785
1477473471.561:   -157  78  10  785
1477473471.561:    -41  78  10  785
1477473471.563:     85  78  10  785
1477473471.567:    222  78  10  785
1477473471.568:    365  78  10  785
1477473471.568:    505  78  10  785
1477473471.569:    636  78  10  785
1477473471.570:    751  78  10  785
1477473471.571:    847  78  10  785
1477473471.572:    931  78  10  785
1477473471.572:   1020  78  10  785
1477473471.586:   1130  78  10  785
1477473471.586:   1255  78  10  785
1477473471.586:   1365  78  10  785
1477473471.587:   1442  78  10  785
1477473471.587:   1492  78  10  785
1477473471.587:   1545  78  10  785
1477473471.587:   1624  78  10  785
1477473471.590:   1733  78  10  785
1477473471.591:   1849  78  10  785
1477473471.592:   1938  78  10  785
1477473471.593:   1983  78  10  785
1477473471.593:   1993  78  10  785
1477473471.594:   2005  78  10  785
1477473471.595:   2043  78  10  785
1477473471.627:   2096  78  10  785
1477473471.628:   2117  78  10  785
1477473471.628:   2077  78  10  785
1477473471.628:   1998  78  10  785
1477473471.628:   1937  78  10  785
1477473471.628:   1929  78  10  785
1477473471.628:   1952  78  10  785
1477473471.629:   1960  78  10  785
1477473471.629:   1938  78  10  785
1477473471.629:   1907  78  10  785
1477473471.629:   1896  78  10  785
1477473471.629:   1903  78  10  785
1477473471.629:   1904  78  10  785
1477473471.630:   1889  78  10  785
1477473471.630:   1868  78  10  785
1477473471.630:   1859  78  10  785
1477473471.630:   1870  78  10  785
1477473471.630:   1897  78  10  785
1477473471.633:   1934  78  10  785
1477473471.633:   1968  78  10  785
1477473471.637:   1983  78  10  785
1477473471.637:   1972  78  10  785
1477473471.642:   1947  78  10  785
1477473471.642:   1924  78  10  785
1477473471.652:   1900  78  10  785
1477473471.652:   1855  78  10  785
1477473471.653:   1783  78  10  785
1477473471.653:   1707  78  10  785
1477473471.653:   1660  78  10  785
1477473471.653:   1648  78  10  785
1477473471.655:   1640  78  10  785
1477473471.658:   1614  78  10  785
1477473471.660:   1583  78  10  785
1477473471.665:   1578  78  10  785
1477473471.666:   1601  78  10  785
1477473471.666:   1616  78  10  785
1477473471.667:   1591  78  10  785
1477473471.669:   1539  78  10  785
1477473471.671:   1499  78  10  785
1477473471.674:   1486  78  10  785
1477473471.678:   1479  78  10  785
1477473471.678:   1446  78  10  785
1477473471.693:   1388  78  10  785
1477473471.693:   1335  78  10  785
1477473471.694:   1307  78  10  785
1477473471.694:   1295  78  10  785
1477473471.694:   1280  78  10  785
1477473471.694:   1265  78  10  785
1477473471.694:   1263  78  10  785
1477473471.696:   1273  78  10  785
1477473471.698:   1277  78  10  785
1477473471.698:   1268  78  10  785
1477473471.700:   1258  78  10  785
1477473471.701:   1266  78  10  785
1477473471.706:   1281  78  10  785
1477473471.801:   1276  78  10  785
1477473471.810:   1237  78  10  785
1477473471.810:   1185  78  10  785
1477473471.810:   1152  78  10  785
1477473471.811:   1144  78  10  785
1477473471.811:   1134  78  10  785
1477473471.811:   1107  78  10  785
1477473471.811:   1073  78  10  785
1477473471.811:   1059  78  10  785
1477473471.811:   1073  78  10  785
1477473471.811:   1091  78  10  785
1477473471.812:   1089  78  10  785
1477473471.812:   1067  78  10  785
1477473471.812:   1045  78  10  785
1477473471.812:   1040  78  10  785
1477473471.812:   1045  78  10  785
1477473471.812:   1037  78  10  785
1477473471.812:   1006  78  10  785
1477473471.812:    966  78  10  785
1477473471.813:    936  78  10  785
1477473471.813:    925  78  10  785
1477473471.813:    924  78  10  785
1477473471.813:    920  78  10  785
1477473471.813:    916  78  10  785
1477473471.813:    921  78  10  785
1477473471.814:    930  78  10  785
1477473471.814:    927  78  10  785
1477473471.814:    902  78  10  785
1477473471.815:    868  78  10  785
1477473471.815:    846  78  10  785
1477473471.815:    840  78  10  785
1477473471.815:    834  78  10  785
1477473471.815:    811  78  10  785
1477473471.815:    783  78  10  785
1477473471.816:    776  78  10  785
1477473471.816:    795  78  10  785
1477473471.816:    817  78  10  785
1477473471.816:    813  78  10  785
1477473471.816:    783  78  10  785
1477473471.817:    753  78  10  785
1477473471.817:    743  78  10  785
1477473471.817:    743  78  10  785
1477473471.817:    731  78  10  785
1477473471.817:    702  78  10  785
1477473471.817:    681  78  10  785
1477473471.818:    692  78  10  785
1477473471.818:    730  78  10  785
1477473471.818:    764  78  10  785
1477473471.818:    764  78  10  785
1477473471.818:    726  78  10  785
1477473471.818:    678  78  10  785
1477473471.819:    651  78  10  785
1477473471.819:    653  78  10  785
1477473471.819:    665  78  10  785
1477473471.819:    662  78  10  785
1477473471.819:    641  78  10  785
1477473471.819:    619  78  10  785
1477473471.820:    618  78  10  785
1477473471.823:    641  78  10  785
1477473471.837:    668  78  10  785
1477473471.837:    671  78  10  785
1477473471.837:    647  78  10  785
1477473471.838:    616  78  10  785
1477473471.838:    605  78  10  785
1477473471.839:    622  78  10  785
1477473471.839:    648  78  10  785
1477473471.839:    652  78  10  785
1477473471.840:    624  78  10  785
1477473471.840:    585  78  10  785
1477473471.840:    564  78  10  785
1477473471.842:    570  78  10  785
1477473471.843:    579  78  10  785
1477473471.846:    566  78  10  785
1477473471.848:    533  78  10  785
1477473471.852:    514  78  10  785
1477473471.862:    538  78  10  785
1477473471.862:    589  78  10  785
1477473471.862:    625  78  10  785
1477473471.862:    620  78  10  785
1477473471.862:    594  78  10  785
1477473471.863:    581  78  10  785
1477473471.885:    585  78  10  785
1477473471.886:    580  78  10  785
1477473471.908:    544  78  10  785
1477473471.908:    493  78  10  785
1477473471.909:    455  78  10  785
1477473471.909:    442  78  10  785
1477473471.909:    436  78  10  785
1477473471.909:    419  78  10  785
1477473471.909:    391  78  10  785
1477473471.909:    362  78  10  785
1477473471.910:    331  78  10  785
1477473471.910:    289  78  10  785
1477473471.910:    235  78  10  785
1477473471.910:    177  78  10  785
1477473471.910:    126  78  10  785
1477473471.911:     83  78  10  785
1477473471.911:     50  78  10  785
1477473471.911:     39  78  10  785
1477473471.911:     60  78  10  785
1477473471.911:    111  78  10  785
1477473471.912:    179  78  10  785
1477473471.912:    255  78  10  785
1477473471.912:    336  78  10  785
1477473471.913:    416  78  10  785
1477473471.914:    480  78  10  785
1477473471.914:    512  78  10  785
1477473471.916:    511  78  10  785
1477473471.917:    492  78  10  785
1477473471.922:    466  78  10  785
1477473471.923:    435  78  10  785
1477473471.953:    396  78  10  785
1477473471.953:    359  78  10  785
1477473471.953:    340  78  10  785
1477473471.953:    350  78  10  785
1477473471.954:    384  78  10  785
1477473471.954:    430  78  10  785
1477473471.954:    477  78  10  785
1477473471.954:    519  78  10  785
1477473471.955:    551  78  10  785
1477473471.955:    572  78  10  785
1477473471.955:    586  78  10  785
1477473471.955:    598  78  10  785
1477473471.955:    607  78  10  785
1477473471.956:    609  78  10  785
1477473471.956:    604  78  10  785
1477473471.956:    597  78  10  785
1477473471.958:    597  78  10  785
1477473471.958:    605  78  10  785
1477473471.959:    615  78  10  785
1477473471.960:    621  78  10  785
1477473471.962:    626  78  10  785
1477473471.964:    634  78  10  785
1477473471.966:    650  78  10  785
1477473471.971:    672  78  10  785
1477473471.983:    700  78  10  785
1477473471.985:    727  78  10  785
1477473471.985:    741  78  10  785
1477473471.986:    730  78  10  785
1477473471.987:    698  78  10  785
1477473471.987:    664  78  10  785
1477473471.990:    642  78  10  785
1477473471.991:    621  78  10  785
1477473471.991:    584  78  10  785
1477473471.993:    530  78  10  785
1477473472.005:    490  78  10  785
1477473472.005:    491  78  10  785
1477473472.008:    525  78  10  785
1477473472.008:    556  78  10  785
1477473472.008:    561  78  10  785
1477473472.009:    545  78  10  785
1477473472.009:    523  78  10  785
1477473472.009:    500  78  10  785
1477473472.009:    471  78  10  785
1477473472.009:    427  78  10  785
1477473472.013:    368  78  10  785
1477473472.015:    286  78  10  785
1477473472.028:    169  78  10  785
1477473472.029:     20  78  10  785
1477473472.030:   -151  78  10  785
1477473472.031:   -348  78  10  785
1477473472.057:   -581  78  10  785
1477473472.058:   -851  78  10  785
1477473472.069:  -1133  81  10  767
1477473472.070:  -1388  81  10  767
1477473472.072:  -1601  81  10  767
1477473472.073:  -1766  81  10  767
1477473472.074:  -1869  81  10  767
1477473472.075:  -1881  81  10  767
1477473472.077:  -1794  81  10  767
1477473472.077:  -1637  81  10  767
1477473472.077:  -1420  81  10  767
1477473472.077:  -1074  81  10  767
1477473472.078:   -493  81  10  767
1477473472.078:    345  81  10  767
1477473472.078:   1289  81  10  767
1477473472.078:   2110  81  10  767
1477473472.079:   2679  81  10  767
1477473472.079:   3059  81  10  767
1477473472.096:   3387  81  10  767
1477473472.096:   3689  81  10  767
1477473472.097:   3834  81  10  767
1477473472.097:   3680  81  10  767
1477473472.097:   3237  81  10  767
1477473472.097:   2677  81  10  767
1477473472.097:   2191  81  10  767
1477473472.098:   1849  81  10  767
1477473472.098:   1606  81  10  767
1477473472.098:   1404  81  10  767
1477473472.098:   1241  81  10  767
1477473472.098:   1141  81  10  767
1477473472.099:   1104  81  10  767
1477473472.099:   1085  81  10  767
1477473472.099:   1042  81  10  767
1477473472.099:    974  81  10  767
1477473472.099:    905  81  10  767
1477473472.099:    840  81  10  767
1477473472.100:    758  81  10  767
1477473472.100:    636  81  10  767
1477473472.100:    492  81  10  767
1477473472.100:    381  81  10  767
1477473472.100:    344  81  10  767
1477473472.101:    379  81  10  767
1477473472.103:    451  81  10  767
1477473472.105:    523  81  10  767
1477473472.107:    579  81  10  767
1477473472.109:    606  81  10  767
1477473472.111:    590  81  10  767
1477473472.112:    523  81  10  767
1477473472.117:    431  81  10  767
1477473472.117:    360  81  10  767
1477473472.130:    339  81  10  767
1477473472.130:    346  81  10  767
1477473472.131:    334  81  10  767
1477473472.131:    281  81  10  767
1477473472.131:    213  81  10  767
1477473472.132:    173  81  10  767
1477473472.132:    176  81  10  767
1477473472.132:    204  81  10  767
1477473472.135:    236  81  10  767
1477473472.136:    262  81  10  767
1477473472.139:    281  81  10  767
1477473472.140:    288  81  10  767
1477473472.144:    277  81  10  767
1477473472.145:    255  81  10  767
1477473472.154:    236  81  10  767
1477473472.154:    228  81  10  767
1477473472.155:    230  81  10  767
1477473472.155:    231  81  10  767
1477473472.156:    226  81  10  767
1477473472.156:    215  81  10  767
1477473472.157:    209  81  10  767
1477473472.162:    218  81  10  767
1477473472.163:    243  81  10  767
1477473472.164:    264  81  10  767
1477473472.166:    260  81  10  767
1477473472.167:    225  81  10  767
1477473472.187:    177  81  10  767
1477473472.187:    144  81  10  767
1477473472.187:    134  81  10  767
1477473472.187:    129  81  10  767
1477473472.188:    111  81  10  767
1477473472.188:     80  81  10  767
1477473472.188:     52  81  10  767
1477473472.188:     38  81  10  767
1477473472.189:     28  81  10  767
1477473472.189:      7  81  10  767
1477473472.190:    -24  81  10  767
1477473472.195:    -50  81  10  767
1477473472.195:    -64  81  10  767
1477473472.199:    -72  81  10  767
1477473472.200:    -90  81  10  767
1477473472.200:   -122  81  10  767
1477473472.202:   -150  81  10  767
1477473472.204:   -159  81  10  767
1477473472.208:   -151  81  10  767
1477473472.208:   -144  81  10  767
1477473472.210:   -154  81  10  767
1477473472.211:   -178  81  10  767
1477473472.212:   -206  81  10  767
1477473472.216:   -229  81  10  767
1477473472.217:   -257  81  10  767
1477473472.224:   -300  81  10  767
1477473472.240:   -356  81  10  767
1477473472.240:   -413  81  10  767
1477473472.240:   -462  81  10  767
1477473472.240:   -500  81  10  767
1477473472.240:   -531  81  10  767
1477473472.240:   -554  81  10  767
1477473472.241:   -571  81  10  767
1477473472.241:   -584  81  10  767
1477473472.241:   -609  81  10  767
1477473472.241:   -656  81  10  767
1477473472.241:   -722  81  10  767
1477473472.243:   -792  81  10  767
1477473472.245:   -851  81  10  767
1477473472.250:   -896  81  10  767
1477473472.250:   -938  81  10  767
1477473472.251:   -985  81  10  767
1477473472.253:  -1033  81  10  767
1477473472.254:  -1064  81  10  767
1477473472.258:  -1069  81  10  767
1477473472.260:  -1061  81  10  767
1477473472.279:  -1068  81  10  767
1477473472.281:  -1101  81  10  767
1477473472.282:  -1147  81  10  767
1477473472.283:  -1180  81  10  767
1477473472.284:  -1195  81  10  767
1477473472.285:  -1204  81  10  767
1477473472.287:  -1220  81  10  767
1477473472.288:  -1240  81  10  767
1477473472.288:  -1256  81  10  767
1477473472.289:  -1271  81  10  767
1477473472.289:  -1293  81  10  767
1477473472.289:  -1323  81  10  767
1477473472.289:  -1346  81  10  767
1477473472.289:  -1348  81  10  767
1477473472.290:  -1334  81  10  767
1477473472.299:  -1317  81  10  767
1477473472.310:  -1301  81  10  767
1477473472.310:  -1273  81  10  767
1477473472.311:  -1221  81  10  767
1477473472.311:  -1149  81  10  767
1477473472.311:  -1074  81  10  767
1477473472.311:  -1001  81  10  767
1477473472.311:   -921  81  10  767
1477473472.311:   -824  81  10  767
1477473472.311:   -713  81  10  767
1477473472.312:   -602  81  10  767
1477473472.312:   -500  81  10  767
1477473472.313:   -405  81  10  767
1477473472.315:   -306  81  10  767
1477473472.317:   -192  81  10  767
1477473472.318:    -65  81  10  767
1477473472.325:     62  81  10  767
1477473472.325:    178  81  10  767
1477473472.325:    285  81  10  767
1477473472.327:    397  81  10  767
1477473472.328:    522  81  10  767
1477473472.331:    646  81  10  767
1477473472.332:    743  81  10  767
1477473472.337:    803  81  10  767
1477473472.338:    845  81  10  767
1477473472.339:    895  81  10  767
1477473472.340:    961  81  10  767
1477473472.355:   1024  81  10  767
1477473472.355:   1066  81  10  767
1477473472.356:   1098  81  10  767
1477473472.356:   1145  81  10  767
1477473472.357:   1212  81  10  767
1477473472.357:   1277  81  10  767
1477473472.357:   1309  81  10  767
1477473472.357:   1305  81  10  767
1477473472.359:   1286  81  10  767
1477473472.360:   1272  81  10  767
1477473472.364:   1262  81  10  767
1477473472.364:   1250  81  10  767
1477473472.374:   1236  81  10  767
1477473472.439:   1229  81  10  767
1477473472.440:   1234  81  10  767
1477473472.440:   1250  81  10  767
1477473472.440:   1272  81  10  767
1477473472.440:   1297  81  10  767
1477473472.440:   1318  81  10  767
1477473472.441:   1322  81  10  767
1477473472.441:   1300  81  10  767
1477473472.441:   1259  81  10  767
1477473472.441:   1218  81  10  767
1477473472.441:   1192  81  10  767
1477473472.441:   1179  81  10  767
1477473472.441:   1170  81  10  767
1477473472.441:   1162  81  10  767
1477473472.442:   1158  81  10  767
1477473472.442:   1163  81  10  767
1477473472.442:   1169  81  10  767
1477473472.442:   1170  81  10  767
1477473472.442:   1161  81  10  767
1477473472.442:   1145  81  10  767
1477473472.442:   1128  81  10  767
1477473472.443:   1113  81  10  767
1477473472.443:   1102  81  10  767
1477473472.443:   1091  81  10  767
1477473472.443:   1075  81  10  767
1477473472.444:   1062  81  10  767
1477473472.444:   1065  81  10  767
1477473472.444:   1084  81  10  767
1477473472.444:   1102  81  10  767
1477473472.444:   1100  81  10  767
1477473472.444:   1082  81  10  767
1477473472.444:   1074  81  10  767
1477473472.445:   1094  81  10  767
1477473472.445:   1125  81  10  767
1477473472.445:   1132  81  10  767
1477473472.445:   1108  81  10  767
1477473472.445:   1087  81  10  767
1477473472.445:   1103  81  10  767
1477473472.445:   1142  81  10  767
1477473472.446:   1159  81  10  767
1477473472.446:   1130  81  10  767
1477473472.449:   1084  81  10  767
1477473472.450:   1060  81  10  767
1477473472.455:   1058  81  10  767
1477473472.456:   1039  81  10  767
1477473472.460:    980  81  10  767
1477473472.460:    906  81  10  767
1477473472.461:    858  81  10  767
1477473472.465:    852  81  10  767
1477473472.480:    866  81  10  767
1477473472.490:    876  81  10  767
1477473472.502:    887  81  10  767
1477473472.503:    909  81  10  767
1477473472.503:    937  81  10  767
1477473472.503:    948  81  10  767
1477473472.503:    935  81  10  767
1477473472.503:    914  81  10  767
1477473472.503:    902  81  10  767
1477473472.504:    892  81  10  767
1477473472.504:    867  81  10  767
1477473472.504:    829  81  10  767
1477473472.504:    807  81  10  767
1477473472.505:    826  81  10  767
1477473472.505:    875  81  10  767
1477473472.506:    918  81  10  767
1477473472.507:    926  81  10  767
1477473472.507:    911  81  10  767
1477473472.508:    905  81  10  767
1477473472.508:    926  81  10  767
1477473472.511:    956  81  10  767
1477473472.511:    957  81  10  767
1477473472.511:    917  81  10  767
1477473472.511:    863  81  10  767
1477473472.514:    836  81  10  767
1477473472.514:    844  81  10  767
1477473472.518:    858  81  10  767
1477473472.518:    842  81  10  767
1477473472.519:    797  81  10  767
1477473472.523:    755  81  10  767
1477473472.526:    735  81  10  767
1477473472.528:    727  81  10  767
1477473472.528:    705  81  10  767
1477473472.531:    670  81  10  767
1477473472.544:    646  81  10  767
1477473472.544:    648  81  10  767
1477473472.544:    669  81  10  767
1477473472.544:    686  81  10  767
1477473472.544:    701  81  10  767
1477473472.544:    733  81  10  767
1477473472.545:    788  81  10  767
1477473472.545:    845  81  10  767
1477473472.547:    871  81  10  767
1477473472.549:    859  81  10  767
1477473472.551:    836  81  10  767
1477473472.556:    830  81  10  767
1477473472.556:    834  81  10  767
1477473472.557:    816  81  10  767
1477473472.559:    762  81  10  767
1477473472.560:    696  81  10  767
1477473472.562:    664  81  10  767
1477473472.565:    679  81  10  767
1477473472.577:    713  81  10  767
1477473472.578:    730  81  10  767
1477473472.578:    731  81  10  767
1477473472.578:    751  81  10  767
1477473472.578:    808  81  10  767
1477473472.578:    876  81  10  767
1477473472.579:    904  81  10  767
1477473472.583:    873  81  10  767
1477473472.583:    808  81  10  767
1477473472.585:    750  81  10  767
1477473472.586:    711  81  10  767
1477473472.587:    672  81  10  767
1477473472.590:    621  81  10  767
1477473472.591:    569  81  10  767
1477473472.593:    542  81  10  767
1477473472.596:    551  81  10  767
1477473472.604:    583  81  10  767
1477473472.604:    626  81  10  767
1477473472.604:    670  81  10  767
1477473472.604:    709  81  10  767
1477473472.605:    742  81  10  767
1477473472.607:    776  81  10  767
1477473472.610:    818  81  10  767
1477473472.611:    867  81  10  767
1477473472.616:    906  81  10  767
1477473472.616:    914  81  10  767
1477473472.617:    891  81  10  767
1477473472.619:    860  81  10  767
1477473472.642:    840  81  10  767
1477473472.643:    826  81  10  767
1477473472.643:    801  81  10  767
1477473472.643:    759  81  10  767
1477473472.643:    720  81  10  767
1477473472.643:    708  81  10  767
1477473472.644:    720  81  10  767
1477473472.644:    735  81  10  767
1477473472.644:    738  81  10  767
1477473472.644:    737  81  10  767
1477473472.644:    751  81  10  767
1477473472.645:    783  81  10  767
1477473472.645:    816  81  10  767
1477473472.650:    830  81  10  767
1477473472.650:    826  81  10  767
1477473472.652:    823  81  10  767
1477473472.653:    833  81  10  767
1477473472.656:    845  81  10  767
1477473472.657:    839  81  10  767
1477473472.661:    804  81  10  767
1477473472.661:    760  81  10  767
1477473472.662:    736  81  10  767
1477473472.676:    747  81  10  767
1477473472.676:    778  81  10  767
1477473472.676:    795  81  10  767
1477473472.676:    771  81  10  767
1477473472.677:    704  81  10  767
1477473472.677:    611  81  10  767
1477473472.677:    516  81  10  767
1477473472.679:    435  81  10  767
1477473472.680:    374  81  10  767
1477473472.683:    331  81  10  767
1477473472.684:    300  81  10  767
1477473472.688:    276  81  10  767
1477473472.701:    267  81  10  767
1477473472.702:    294  81  10  767
1477473472.702:    365  81  10  767
1477473472.702:    469  81  10  767
1477473472.702:    576  81  10  767
1477473472.702:    660  81  10  767
1477473472.703:    710  81  10  767
1477473472.703:    734  81  10  767
1477473472.704:    749  81  10  767
1477473472.708:    771  81  10  767
1477473472.708:    809  81  10  767
1477473472.710:    855  81  10  767
1477473472.711:    888  81  10  767
1477473472.716:    888  81  10  767
1477473472.727:    867  81  10  767
1477473472.727:    861  81  10  767
1477473472.727:    894  81  10  767
1477473472.727:    950  81  10  767
1477473472.728:    977  81  10  767
1477473472.728:    950  81  10  767
1477473472.728:    904  81  10  767
1477473472.730:    897  81  10  767
1477473472.731:    947  81  10  767
1477473472.734:   1010  81  10  767
1477473472.739:   1034  81  10  767
1477473472.740:   1018  81  10  767
1477473472.740:   1013  81  10  767
1477473472.743:   1054  81  10  767
1477473472.743:   1115  81  10  767
1477473472.745:   1138  81  10  767
1477473472.747:   1102  81  10  767
1477473472.752:   1044  81  10  767
1477473472.752:   1016  81  10  767
1477473472.753:   1034  81  10  767
1477473472.755:   1068  81  10  767
1477473472.756:   1083  81  10  767
1477473472.770:   1073  81  10  767
1477473472.771:   1053  81  10  767
1477473472.772:   1044  81  10  767
1477473472.772:   1046  81  10  767
1477473472.773:   1053  81  10  767
1477473472.773:   1055  81  10  767
1477473472.774:   1051  81  10  767
1477473472.774:   1039  81  10  767
1477473472.775:   1021  81  10  767
1477473472.782:    997  81  10  767
1477473472.793:    969  81  10  767
1477473472.793:    939  81  10  767
1477473472.793:    910  81  10  767
1477473472.793:    882  81  10  767
1477473472.793:    857  81  10  767
1477473472.793:    841  81  10  767
1477473472.794:    835  81  10  767
1477473472.795:    836  81  10  767
1477473472.797:    832  81  10  767
1477473472.797:    811  81  10  767
1477473472.799:    766  81  10  767
1477473472.801:    699  81  10  767
1477473472.803:    612  81  10  767
1477473472.808:    510  81  10  767
1477473472.808:    400  81  10  767
1477473472.808:    268  81  10  767
1477473472.810:     79  81  10  767
1477473472.811:   -185  81  10  767
1477473472.814:   -492  81  10  767
1477473472.816:   -773  81  10  767
1477473472.821:   -976  81  10  767
1477473472.821:  -1126  81  10  767
1477473472.845:  -1282  81  10  767
1477473472.846:  -1450  81  10  767
1477473472.846:  -1555  81  10  767
1477473472.846:  -1519  81  10  767
1477473472.847:  -1357  81  10  767
1477473472.847:  -1136  81  10  767
1477473472.847:   -860  81  10  767
1477473472.848:   -426  81  10  767
1477473472.848:    266  81  10  767
1477473472.848:   1149  81  10  767
1477473472.848:   2005  81  10  767
1477473472.849:   2647  81  10  767
1477473472.849:   3073  81  10  767
1477473472.849:   3415  81  10  767
1477473472.849:   3750  81  10  767
1477473472.853:   3984  81  10  767
1477473472.853:   3955  81  10  767
1477473472.855:   3609  81  10  767
1477473472.857:   3077  81  10  767
1477473472.859:   2561  81  10  767
1477473472.868:   2180  81  10  767
1477473472.868:   1918  81  10  767
1477473472.868:   1709  81  10  767
1477473472.869:   1526  81  10  767
1477473472.869:   1392  81  10  767
1477473472.870:   1331  81  10  767
1477473472.873:   1324  81  10  767
1477473472.875:   1329  81  10  767
1477473472.876:   1316  81  10  767
1477473472.881:   1278  81  10  767
1477473472.881:   1205  81  10  767
1477473472.882:   1088  81  10  767
1477473472.883:    929  81  10  767
1477473472.887:    765  81  10  767
1477473472.889:    654  81  10  767
1477473472.890:    623  81  10  767
1477473472.901:    654  81  10  767
1477473472.901:    708  81  10  767
1477473472.901:    756  81  10  767
1477473472.902:    794  81  10  767
1477473472.902:    815  81  10  767
1477473472.902:    812  81  10  767
1477473472.904:    781  81  10  767
1477473472.908:    735  81  10  767
1477473472.908:    700  81  10  767
1477473472.910:    691  81  10  767
1477473472.913:    705  81  10  767
1477473472.914:    728  81  10  767
1477473472.923:    743  81  10  767
1477473472.923:    738  81  10  767
1477473472.924:    706  81  10  767
1477473472.924:    657  81  10  767
1477473472.925:    617  81  10  767
1477473472.926:    608  81  10  767
1477473472.927:    632  81  10  767
1477473472.929:    663  81  10  767
1477473472.936:    673  81  10  767
1477473472.936:    663  81  10  767
1477473472.936:    656  81  10  767
1477473472.938:    667  81  10  767
1477473472.940:    681  81  10  767
1477473472.941:    672  81  10  767
1477473472.943:    636  81  10  767
1477473472.945:    597  81  10  767
1477473472.947:    585  81  10  767
1477473472.949:    600  81  10  767
1477473472.954:    618  81  10  767
1477473472.955:    615  81  10  767
1477473472.967:    591  79  10  776
1477473472.967:    560  79  10  776
1477473472.967:    531  79  10  776
1477473472.967:    501  79  10  776
1477473472.967:    468  79  10  776
1477473472.968:    437  79  10  776
1477473472.968:    413  79  10  776
1477473472.970:    391  79  10  776
1477473472.974:    364  79  10  776
1477473472.975:    340  79  10  776
1477473472.976:    328  79  10  776
1477473472.978:    332  79  10  776
1477473472.983:    337  79  10  776
1477473472.983:    331  79  10  776
1477473472.992:    315  79  10  776
1477473472.992:    301  79  10  776
1477473472.992:    292  79  10  776
1477473472.992:    283  79  10  776
1477473472.992:    275  79  10  776
1477473472.993:    279  79  10  776
1477473472.994:    302  79  10  776
1477473472.996:    336  79  10  776
1477473472.999:    362  79  10  776
1477473473.003:    366  79  10  776
1477473473.004:    349  79  10  776
1477473473.006:    315  79  10  776
1477473473.006:    264  79  10  776
1477473473.008:    202  79  10  776
1477473473.010:    143  79  10  776
1477473473.013:     92  79  10  776
1477473473.017:     33  79  10  776
1477473473.017:    -46  79  10  776
1477473473.020:   -133  79  10  776
1477473473.020:   -187  79  10  776
1477473473.023:   -187  79  10  776
1477473473.024:   -155  79  10  776
1477473473.057:   -141  79  10  776
1477473473.057:   -168  79  10  776
1477473473.058:   -214  79  10  776
1477473473.059:   -248  79  10  776
1477473473.059:   -266  79  10  776
1477473473.062:   -289  79  10  776
1477473473.062:   -336  79  10  776
1477473473.062:   -400  79  10  776
1477473473.064:   -461  79  10  776
1477473473.067:   -511  79  10  776
1477473473.082:   -550  79  10  776
1477473473.083:   -579  79  10  776
1477473473.083:   -594  79  10  776
1477473473.083:   -595  79  10  776
1477473473.083:   -596  79  10  776
1477473473.083:   -612  79  10  776
1477473473.083:   -645  79  10  776
1477473473.083:   -683  79  10  776
1477473473.084:   -712  79  10  776
1477473473.084:   -736  79  10  776
1477473473.084:   -762  79  10  776
1477473473.084:   -790  79  10  776
1477473473.084:   -797  79  10  776
1477473473.084:   -764  79  10  776
1477473473.084:   -694  79  10  776
1477473473.085:   -622  79  10  776
1477473473.085:   -582  79  10  776
1477473473.085:   -573  79  10  776
1477473473.085:   -559  79  10  776
1477473473.086:   -505  79  10  776
1477473473.086:   -416  79  10  776
1477473473.087:   -331  79  10  776
1477473473.091:   -277  79  10  776
1477473473.093:   -238  79  10  776
1477473473.093:   -169  79  10  776
1477473473.095:    -44  79  10  776
1477473473.099:    116  79  10  776
1477473473.100:    269  79  10  776
1477473473.102:    388  79  10  776
1477473473.103:    487  79  10  776
1477473473.104:    591  79  10  776
1477473473.106:    710  79  10  776
1477473473.136:    826  79  10  776
1477473473.136:    922  79  10  776
1477473473.137:   1001  79  10  776
1477473473.137:   1078  79  10  776
1477473473.137:   1168  79  10  776
1477473473.137:   1268  79  10  776
1477473473.137:   1370  79  10  776
1477473473.138:   1476  79  10  776
1477473473.138:   1591  79  10  776
1477473473.138:   1716  79  10  776
1477473473.139:   1840  79  10  776
1477473473.139:   1951  79  10  776
1477473473.139:   2047  79  10  776
1477473473.140:   2129  79  10  776
1477473473.140:   2190  79  10  776
1477473473.140:   2219  79  10  776
1477473473.140:   2215  79  10  776
1477473473.141:   2198  79  10  776
1477473473.144:   2186  79  10  776
1477473473.151:   2183  79  10  776
1477473473.151:   2177  79  10  776
1477473473.151:   2165  79  10  776
1477473473.151:   2160  79  10  776
1477473473.157:   2174  79  10  776
1477473473.158:   2199  79  10  776
1477473473.159:   2210  79  10  776
1477473473.160:   2199  79  10  776
1477473473.161:   2178  79  10  776
1477473473.176:   2166  79  10  776
1477473473.177:   2168  79  10  776
1477473473.177:   2171  79  10  776
1477473473.177:   2163  79  10  776
1477473473.177:   2149  79  10  776
1477473473.177:   2142  79  10  776
1477473473.177:   2150  79  10  776
1477473473.179:   2165  79  10  776
1477473473.182:   2171  79  10  776
1477473473.182:   2162  79  10  776
1477473473.188:   2145  79  10  776
1477473473.190:   2134  79  10  776
1477473473.202:   2134  79  10  776
1477473473.202:   2138  79  10  776
1477473473.202:   2137  79  10  776
1477473473.203:   2131  79  10  776
1477473473.203:   2124  79  10  776
1477473473.203:   2118  79  10  776
1477473473.203:   2097  79  10  776
1477473473.203:   2050  79  10  776
1477473473.204:   1986  79  10  776
1477473473.206:   1924  79  10  776
1477473473.207:   1876  79  10  776
1477473473.207:   1830  79  10  776
1477473473.210:   1775  79  10  776
1477473473.213:   1722  79  10  776
1477473473.226:   1699  79  10  776
1477473473.226:   1712  79  10  776
1477473473.227:   1735  79  10  776
1477473473.227:   1737  79  10  776
1477473473.228:   1722  79  10  776
1477473473.228:   1717  79  10  776
1477473473.228:   1731  79  10  776
1477473473.229:   1733  79  10  776
1477473473.230:   1691  79  10  776
1477473473.234:   1614  79  10  776
1477473473.234:   1542  79  10  776
1477473473.237:   1500  79  10  776
1477473473.238:   1478  79  10  776
1477473473.241:   1455  79  10  776
1477473473.243:   1433  79  10  776
1477473473.246:   1433  79  10  776
1477473473.258:   1467  79  10  776
1477473473.258:   1520  79  10  776
1477473473.258:   1569  79  10  776
1477473473.259:   1602  79  10  776
1477473473.259:   1618  79  10  776
1477473473.259:   1610  79  10  776
1477473473.260:   1571  79  10  776
1477473473.260:   1507  79  10  776
1477473473.266:   1437  79  10  776
1477473473.334:   1377  79  10  776
1477473473.347:   1327  79  10  776
1477473473.348:   1282  79  10  776
1477473473.348:   1244  79  10  776
1477473473.348:   1227  79  10  776
1477473473.348:   1237  79  10  776
1477473473.348:   1264  79  10  776
1477473473.349:   1291  79  10  776
1477473473.349:   1307  79  10  776
1477473473.349:   1312  79  10  776
1477473473.349:   1313  79  10  776
1477473473.349:   1308  79  10  776
1477473473.349:   1297  79  10  776
1477473473.349:   1281  79  10  776
1477473473.350:   1260  79  10  776
1477473473.350:   1236  79  10  776
1477473473.350:   1210  79  10  776
1477473473.350:   1188  79  10  776
1477473473.350:   1172  79  10  776
1477473473.350:   1157  79  10  776
1477473473.350:   1135  79  10  776
1477473473.351:   1107  79  10  776
1477473473.351:   1089  79  10  776
1477473473.351:   1096  79  10  776
1477473473.351:   1129  79  10  776
1477473473.351:   1168  79  10  776
1477473473.351:   1198  79  10  776
1477473473.351:   1217  79  10  776
1477473473.352:   1236  79  10  776
1477473473.352:   1265  79  10  776
1477473473.352:   1298  79  10  776
1477473473.352:   1318  79  10  776
1477473473.352:   1307  79  10  776
1477473473.352:   1269  79  10  776
1477473473.353:   1223  79  10  776
1477473473.353:   1195  79  10  776
1477473473.353:   1189  79  10  776
1477473473.353:   1188  79  10  776
1477473473.353:   1174  79  10  776
1477473473.353:   1148  79  10  776
1477473473.354:   1133  79  10  776
1477473473.354:   1148  79  10  776
1477473473.354:   1184  79  10  776
1477473473.355:   1211  79  10  776
1477473473.355:   1214  79  10  776
1477473473.355:   1209  79  10  776
1477473473.355:   1219  79  10  776
1477473473.355:   1247  79  10  776
1477473473.360:   1268  79  10  776
1477473473.361:   1258  79  10  776
1477473473.366:   1215  79  10  776
1477473473.378:   1168  79  10  776
1477473473.379:   1140  79  10  776
1477473473.379:   1133  79  10  776
1477473473.379:   1128  79  10  776
1477473473.379:   1109  79  10  776
1477473473.379:   1080  79  10  776
1477473473.380:   1061  79  10  776
1477473473.380:   1068  79  10  776
1477473473.380:   1100  79  10  776
1477473473.381:   1135  79  10  776
1477473473.382:   1152  79  10  776
1477473473.385:   1145  79  10  776
1477473473.390:   1136  79  10  776
1477473473.391:   1144  79  10  776
1477473473.393:   1173  79  10  776
1477473473.396:   1198  79  10  776
1477473473.398:   1194  79  10  776
1477473473.398:   1158  79  10  776
1477473473.398:   1119  79  10  776
1477473473.401:   1108  79  10  776
1477473473.406:   1124  79  10  776
1477473473.406:   1135  79  10  776
1477473473.414:   1115  79  10  776
1477473473.415:   1070  79  10  776
1477473473.415:   1035  79  10  776
1477473473.415:   1033  79  10  776
1477473473.415:   1045  79  10  776
1477473473.416:   1038  79  10  776
1477473473.420:   1004  79  10  776
1477473473.421:    964  79  10  776
1477473473.424:    945  79  10  776
1477473473.424:    950  79  10  776
1477473473.435:    966  79  10  776
1477473473.436:    984  79  10  776
1477473473.436:   1012  79  10  776
1477473473.436:   1050  79  10  776
1477473473.436:   1084  79  10  776
1477473473.438:   1096  79  10  776
1477473473.439:   1081  79  10  776
1477473473.442:   1048  79  10  776
1477473473.442:   1009  79  10  776
1477473473.444:    965  79  10  776
1477473473.446:    908  79  10  776
1477473473.447:    838  79  10  776
1477473473.452:    765  79  10  776
1477473473.452:    708  79  10  776
1477473473.466:    676  79  10  776
1477473473.466:    659  79  10  776
1477473473.466:    632  79  10  776
1477473473.467:    583  79  10  776
1477473473.467:    530  79  10  776
1477473473.467:    507  79  10  776
1477473473.469:    529  79  10  776
1477473473.472:    572  79  10  776
1477473473.472:    605  79  10  776
1477473473.472:    624  79  10  776
1477473473.476:    654  79  10  776
1477473473.477:    717  79  10  776
1477473473.478:    801  79  10  776
1477473473.479:    874  79  10  776
1477473473.481:    915  79  10  776
1477473473.484:    928  79  10  776
1477473473.496:    927  79  10  776
1477473473.496:    923  79  10  776
1477473473.496:    920  79  10  776
1477473473.496:    925  79  10  776
1477473473.496:    946  79  10  776
1477473473.496:    973  79  10  776
1477473473.497:    991  79  10  776
1477473473.498:    995  79  10  776
1477473473.501:   1001  79  10  776
1477473473.502:   1028  79  10  776
1477473473.507:   1073  79  10  776
1477473473.507:   1113  79  10  776
1477473473.510:   1124  79  10  776
1477473473.511:   1109  79  10  776
1477473473.512:   1087  79  10  776
1477473473.513:   1075  79  10  776
1477473473.519:   1071  79  10  776
1477473473.519:   1067  79  10  776
1477473473.528:   1059  79  10  776
1477473473.528:   1057  79  10  776
1477473473.528:   1069  79  10  776
1477473473.528:   1086  79  10  776
1477473473.529:   1094  79  10  776
1477473473.530:   1088  79  10  776
1477473473.532:   1075  79  10  776
1477473473.533:   1061  79  10  776
1477473473.538:   1042  79  10  776
1477473473.538:   1008  79  10  776
1477473473.540:    961  79  10  776
1477473473.542:    916  79  10  776
1477473473.551:    888  79  10  776
1477473473.552:    876  79  10  776
1477473473.552:    866  79  10  776
1477473473.552:    853  79  10  776
1477473473.552:    852  79  10  776
1477473473.554:    877  79  10  776
1477473473.556:    916  79  10  776
1477473473.560:    930  79  10  776
1477473473.561:    890  79  10  776
1477473473.562:    808  79  10  776
1477473473.563:    726  79  10  776
1477473473.564:    666  79  10  776
1477473473.580:    611  79  10  776
1477473473.580:    524  79  10  776
1477473473.580:    393  79  10  776
1477473473.580:    244  79  10  776
1477473473.581:    100  79  10  776
1477473473.581:    -60  79  10  776
1477473473.581:   -265  79  10  776
1477473473.582:   -504  79  10  776
1477473473.584:   -722  79  10  776
1477473473.589:   -886  79  10  776
1477473473.589:  -1017  79  10  776
1477473473.589:  -1148  79  10  776
1477473473.591:  -1259  79  10  776
1477473473.592:  -1287  79  10  776
1477473473.610:  -1216  79  10  776
1477473473.610:  -1102  79  10  776
1477473473.611:   -970  79  10  776
1477473473.611:   -721  79  10  776
1477473473.611:   -192  79  10  776
1477473473.611:    645  79  10  776
1477473473.612:   1589  79  10  776
1477473473.612:   2361  79  10  776
1477473473.612:   2857  79  10  776
1477473473.615:   3207  79  10  776
1477473473.616:   3567  79  10  776
1477473473.617:   3912  79  10  776
1477473473.619:   4048  79  10  776
1477473473.620:   3840  79  10  776
1477473473.625:   3359  79  10  776
1477473473.626:   2818  79  10  776
1477473473.629:   2380  79  10  776
1477473473.629:   2077  79  10  776
1477473473.639:   1870  79  10  776
1477473473.639:   1737  79  10  776
1477473473.640:   1673  79  10  776
1477473473.640:   1651  79  10  776
1477473473.640:   1626  79  10  776
1477473473.644:   1583  79  10  776
1477473473.644:   1546  79  10  776
1477473473.644:   1538  79  10  776
1477473473.652:   1529  79  10  776
1477473473.653:   1459  79  10  776
1477473473.666:   1316  79  10  776
1477473473.666:   1144  79  10  776
1477473473.667:   1010  79  10  776
1477473473.668:    950  79  10  776
1477473473.668:    957  79  10  776
1477473473.669:   1005  79  10  776
1477473473.669:   1067  79  10  776
1477473473.669:   1120  79  10  776
1477473473.670:   1136  79  10  776
1477473473.671:   1096  79  10  776
1477473473.672:   1012  79  10  776
1477473473.673:    919  79  10  776
1477473473.676:    857  79  10  776
1477473473.677:    840  79  10  776
1477473473.678:    858  79  10  776
1477473473.679:    885  79  10  776
1477473473.682:    904  79  10  776
1477473473.683:    910  79  10  776
1477473473.686:    910  79  10  776
1477473473.690:    911  79  10  776
1477473473.705:    915  79  10  776
1477473473.705:    916  79  10  776
1477473473.705:    921  79  10  776
1477473473.706:    945  79  10  776
1477473473.706:    996  79  10  776
1477473473.706:   1061  79  10  776
1477473473.706:   1108  79  10  776
1477473473.707:   1114  79  10  776
1477473473.707:   1089  79  10  776
1477473473.707:   1063  79  10  776
1477473473.712:   1052  79  10  776
1477473473.713:   1042  79  10  776
1477473473.713:   1012  79  10  776
1477473473.717:    964  79  10  776
1477473473.717:    924  79  10  776
1477473473.719:    916  79  10  776
1477473473.733:    933  79  10  776
1477473473.733:    950  79  10  776
1477473473.734:    951  79  10  776
1477473473.734:    947  79  10  776
1477473473.735:    953  79  10  776
1477473473.735:    968  79  10  776
1477473473.735:    978  79  10  776
1477473473.736:    969  79  10  776
1477473473.736:    941  79  10  776
1477473473.739:    904  79  10  776
1477473473.740:    870  79  10  776
1477473473.742:    847  79  10  776
1477473473.757:    840  79  10  776
1477473473.772:    843  79  10  776
1477473473.772:    848  77  10  803
1477473473.773:    848  77  10  803
1477473473.775:    844  77  10  803
1477473473.775:    834  77  10  803
1477473473.775:    812  77  10  803
1477473473.776:    772  77  10  803
1477473473.776:    719  77  10  803
1477473473.776:    669  77  10  803
1477473473.776:    631  77  10  803
1477473473.776:    599  77  10  803
1477473473.780:    563  77  10  803
1477473473.781:    526  77  10  803
1477473473.781:    510  77  10  803
1477473473.781:    526  77  10  803
1477473473.781:    563  77  10  803
1477473473.781:    584  77  10  803
1477473473.781:    566  77  10  803
1477473473.782:    515  77  10  803
1477473473.784:    453  77  10  803
1477473473.785:    403  77  10  803
1477473473.789:    360  77  10  803
1477473473.789:    309  77  10  803
1477473473.791:    242  77  10  803
1477473473.792:    169  77  10  803
1477473473.801:    114  77  10  803
1477473473.802:     90  77  10  803
1477473473.802:     90  77  10  803
1477473473.802:     92  77  10  803
1477473473.802:     77  77  10  803
1477473473.809:     43  77  10  803
1477473473.810:      9  77  10  803
1477473473.811:    -12  77  10  803
1477473473.821:    -28  77  10  803
1477473473.822:    -64  77  10  803
1477473473.822:   -134  77  10  803
1477473473.822:   -218  77  10  803
1477473473.822:   -281  77  10  803
1477473473.822:   -307  77  10  803
1477473473.825:   -317  77  10  803
1477473473.826:   -342  77  10  803
1477473473.827:   -383  77  10  803
1477473473.829:   -408  77  10  803
1477473473.830:   -384  77  10  803
1477473473.833:   -317  77  10  803
1477473473.835:   -248  77  10  803
1477473473.840:   -211  77  10  803
1477473473.841:   -205  77  10  803
1477473473.841:   -202  77  10  803
1477473473.842:   -189  77  10  803
1477473473.844:   -178  77  10  803
1477473473.846:   -183  77  10  803
1477473473.849:   -195  77  10  803
1477473473.853:   -193  77  10  803
1477473473.853:   -160  77  10  803
1477473473.868:    -98  77  10  803
1477473473.868:    -25  77  10  803
1477473473.869:     53  77  10  803
1477473473.870:    149  77  10  803
1477473473.870:    277  77  10  803
1477473473.871:    439  77  10  803
1477473473.872:    616  77  10  803
1477473473.872:    783  77  10  803
1477473473.873:    935  77  10  803
1477473473.873:   1083  77  10  803
1477473473.874:   1243  77  10  803
1477473473.877:   1417  77  10  803
1477473473.886:   1598  77  10  803
1477473473.886:   1779  77  10  803
1477473473.887:   1965  77  10  803
1477473473.887:   2163  77  10  803
1477473473.888:   2374  77  10  803
1477473473.891:   2596  77  10  803
1477473473.891:   2832  77  10  803
1477473473.894:   3089  77  10  803
1477473473.895:   3363  77  10  803
1477473473.898:   3631  77  10  803
1477473473.899:   3860  77  10  803
1477473473.908:   4041  77  10  803
1477473473.908:   4196  77  10  803
1477473473.909:   4355  77  10  803
1477473473.919:   4530  77  10  803
1477473473.919:   4703  77  10  803
1477473473.940:   4853  77  10  803
1477473473.941:   4978  77  10  803
1477473473.941:   5092  77  10  803
1477473473.942:   5207  77  10  803
1477473473.942:   5322  77  10  803
1477473473.943:   5421  77  10  803
1477473473.944:   5493  77  10  803
1477473473.945:   5535  77  10  803
1477473473.945:   5547  77  10  803
1477473473.946:   5529  77  10  803
1477473473.960:   5490  77  10  803
1477473473.960:   5447  77  10  803
1477473473.960:   5414  77  10  803
1477473473.960:   5396  77  10  803
1477473473.960:   5387  77  10  803
1477473473.960:   5383  77  10  803
1477473473.960:   5386  77  10  803
1477473473.961:   5401  77  10  803
1477473473.961:   5428  77  10  803
1477473473.961:   5457  77  10  803
1477473473.961:   5474  77  10  803
1477473473.961:   5466  77  10  803
1477473473.961:   5431  77  10  803
1477473473.961:   5377  77  10  803
1477473473.962:   5313  77  10  803
1477473473.962:   5247  77  10  803
1477473473.962:   5177  77  10  803
1477473473.963:   5107  77  10  803
1477473473.964:   5052  77  10  803
1477473473.969:   5031  77  10  803
1477473473.969:   5043  77  10  803
1477473473.970:   5065  77  10  803
1477473473.972:   5063  77  10  803
1477473473.977:   5029  77  10  803
1477473473.978:   4983  77  10  803
1477473473.980:   4943  77  10  803
1477473473.980:   4908  77  10  803
1477473473.982:   4856  77  10  803
1477473473.986:   4781  77  10  803
1477473473.986:   4700  77  10  803
1477473473.989:   4642  77  10  803
1477473473.990:   4620  77  10  803
1477473473.992:   4617  77  10  803
1477473473.996:   4613  77  10  803
1477473474.008:   4599  77  10  803
1477473474.009:   4578  77  10  803
1477473474.009:   4553  77  10  803
1477473474.011:   4515  77  10  803
1477473474.011:   4454  77  10  803
1477473474.012:   4370  77  10  803
1477473474.013:   4279  77  10  803
1477473474.015:   4197  77  10  803
1477473474.016:   4133  77  10  803
1477473474.018:   4080  77  10  803
1477473474.019:   4030  77  10  803
1477473474.019:   3983  77  10  803
1477473474.032:   3944  77  10  803
1477473474.032:   3920  77  10  803
1477473474.032:   3904  77  10  803
1477473474.033:   3884  77  10  803
1477473474.033:   3851  77  10  803
1477473474.033:   3808  77  10  803
1477473474.063:   3764  77  10  803
1477473474.063:   3726  77  10  803
1477473474.063:   3692  77  10  803
1477473474.064:   3657  77  10  803
1477473474.064:   3617  77  10  803
1477473474.065:   3577  77  10  803
1477473474.065:   3545  77  10  803
1477473474.065:   3525  77  10  803
1477473474.066:   3509  77  10  803
1477473474.068:   3483  77  10  803
1477473474.070:   3439  77  10  803
1477473474.071:   3392  77  10  803
1477473474.072:   3360  77  10  803
1477473474.072:   3344  77  10  803
1477473474.164:   3317  77  10  803
1477473474.165:   3251  77  10  803
1477473474.165:   3155  77  10  803
1477473474.165:   3073  77  10  803
1477473474.166:   3032  77  10  803
1477473474.166:   3016  77  10  803
1477473474.166:   2982  77  10  803
1477473474.167:   2915  77  10  803
1477473474.167:   2846  77  10  803
1477473474.167:   2810  77  10  803
1477473474.167:   2804  77  10  803
1477473474.167:   2790  77  10  803
1477473474.168:   2748  77  10  803
1477473474.168:   2703  77  10  803
1477473474.168:   2695  77  10  803
1477473474.168:   2726  77  10  803
1477473474.169:   2757  77  10  803
1477473474.169:   2760  77  10  803
1477473474.169:   2744  77  10  803
1477473474.169:   2746  77  10  803
1477473474.169:   2778  77  10  803
1477473474.169:   2814  77  10  803
1477473474.170:   2816  77  10  803
1477473474.170:   2774  77  10  803
1477473474.170:   2716  77  10  803
1477473474.170:   2675  77  10  803
1477473474.170:   2656  77  10  803
1477473474.170:   2638  77  10  803
1477473474.171:   2603  77  10  803
1477473474.171:   2552  77  10  803
1477473474.171:   2501  77  10  803
1477473474.171:   2460  77  10  803
1477473474.172:   2422  77  10  803
1477473474.172:   2380  77  10  803
1477473474.172:   2331  77  10  803
1477473474.172:   2284  77  10  803
1477473474.172:   2240  77  10  803
1477473474.173:   2201  77  10  803
1477473474.185:   2165  77  10  803
1477473474.186:   2136  77  10  803
1477473474.186:   2114  77  10  803
1477473474.186:   2092  77  10  803
1477473474.187:   2066  77  10  803
1477473474.187:   2045  77  10  803
1477473474.187:   2042  77  10  803
1477473474.188:   2058  77  10  803
1477473474.189:   2072  77  10  803
1477473474.190:   2070  77  10  803
1477473474.190:   2062  77  10  803
1477473474.190:   2071  77  10  803
1477473474.190:   2105  77  10  803
1477473474.191:   2142  77  10  803
1477473474.191:   2155  77  10  803
1477473474.191:   2140  77  10  803
1477473474.191:   2118  77  10  803
1477473474.191:   2105  77  10  803
1477473474.192:   2088  77  10  803
1477473474.192:   2049  77  10  803
1477473474.192:   1987  77  10  803
1477473474.192:   1925  77  10  803
1477473474.193:   1875  77  10  803
1477473474.193:   1831  77  10  803
1477473474.193:   1778  77  10  803
1477473474.193:   1723  77  10  803
1477473474.193:   1684  77  10  803
1477473474.194:   1672  77  10  803
1477473474.195:   1674  77  10  803
1477473474.195:   1675  77  10  803
1477473474.195:   1673  77  10  803
1477473474.197:   1674  77  10  803
1477473474.210:   1675  77  10  803
1477473474.210:   1670  77  10  803
1477473474.210:   1659  77  10  803
1477473474.210:   1653  77  10  803
1477473474.210:   1657  77  10  803
1477473474.210:   1661  77  10  803
1477473474.211:   1652  77  10  803
1477473474.211:   1633  77  10  803
1477473474.214:   1620  77  10  803
1477473474.214:   1619  77  10  803
1477473474.216:   1613  77  10  803
1477473474.217:   1583  77  10  803
1477473474.219:   1536  77  10  803
1477473474.222:   1494  77  10  803
1477473474.223:   1468  77  10  803
1477473474.225:   1442  77  10  803
1477473474.234:   1405  77  10  803
1477473474.234:   1364  77  10  803
1477473474.234:   1339  77  10  803
1477473474.234:   1334  77  10  803
1477473474.235:   1329  77  10  803
1477473474.236:   1306  77  10  803
1477473474.239:   1263  77  10  803
1477473474.241:   1214  77  10  803
1477473474.242:   1166  77  10  803
1477473474.247:   1111  77  10  803
1477473474.247:   1044  77  10  803
1477473474.249:    975  77  10  803
1477473474.250:    921  77  10  803
1477473474.253:    887  77  10  803
1477473474.269:    868  77  10  803
1477473474.269:    856  77  10  803
1477473474.269:    856  77  10  803
1477473474.270:    878  77  10  803
1477473474.270:    924  77  10  803
1477473474.270:    984  77  10  803
1477473474.270:   1044  77  10  803
1477473474.271:   1101  77  10  803
1477473474.272:   1160  77  10  803
1477473474.274:   1216  77  10  803
1477473474.275:   1253  77  10  803
1477473474.276:   1258  77  10  803
1477473474.303:   1237  77  10  803
1477473474.303:   1210  77  10  803
1477473474.303:   1194  77  10  803
1477473474.303:   1180  77  10  803
1477473474.304:   1155  77  10  803
1477473474.304:   1121  77  10  803
1477473474.304:   1100  77  10  803
1477473474.304:   1115  77  10  803
1477473474.305:   1161  77  10  803
1477473474.305:   1211  77  10  803
1477473474.305:   1243  77  10  803
1477473474.306:   1253  77  10  803
1477473474.307:   1253  77  10  803
1477473474.308:   1256  77  10  803
1477473474.308:   1263  77  10  803
1477473474.309:   1271  77  10  803
1477473474.309:   1275  77  10  803
1477473474.316:   1272  77  10  803
1477473474.316:   1262  77  10  803
1477473474.317:   1250  77  10  803
1477473474.319:   1247  77  10  803
1477473474.320:   1262  77  10  803
1477473474.322:   1288  77  10  803
1477473474.322:   1308  77  10  803
1477473474.328:   1314  77  10  803
1477473474.328:   1312  77  10  803
1477473474.349:   1314  77  10  803
1477473474.349:   1322  77  10  803
1477473474.349:   1324  77  10  803
1477473474.349:   1312  77  10  803
1477473474.350:   1285  77  10  803
1477473474.350:   1250  77  10  803
1477473474.350:   1210  77  10  803
1477473474.350:   1164  77  10  803
1477473474.350:   1094  77  10  803
1477473474.350:   1003  77  10  803
1477473474.352:    926  77  10  803
1477473474.353:    894  77  10  803
1477473474.354:    886  77  10  803
1477473474.356:    852  77  10  803
1477473474.356:    770  77  10  803
1477473474.361:    689  77  10  803
1477473474.361:    652  77  10  803
1477473474.363:    615  77  10  803
1477473474.364:    484  77  10  803
1477473474.370:    260  77  10  803
1477473474.371:     82  77  10  803
1477473474.372:     51  77  10  803
1477473474.373:      4  77  10  803
1477473474.374:   -427  77  10  803
1477473474.379:  -1485  77  10  803
1477473474.379:  -3019  77  10  803
1477473474.391:  -4628  77  10  803
1477473474.392:  -6082  77  10  803
1477473474.392:  -7516  77  10  803
1477473474.393:  -9205  77  10  803
1477473474.393: -11166  77  10  803
1477473474.393: -13060  77  10  803
1477473474.395: -14485  77  10  803
1477473474.398: -15324  77  10  803
1477473474.399: -15780  77  10  803
1477473474.399: -16109  77  10  803
1477473474.401: -16361  77  10  803
1477473474.401: -16389  77  10  803
1477473474.404: -16063  77  10  803
1477473474.407: -15457  77  10  803
1477473474.411: -14827  77  10  803
1477473474.411: -14417  77  10  803
1477473474.427: -14280  77  10  803
1477473474.427: -14296  77  10  803
1477473474.427: -14348  77  10  803
1477473474.428: -14453  77  10  803
1477473474.428: -14737  77  10  803
1477473474.428: -15261  77  10  803
1477473474.428: -15919  77  10  803
1477473474.428: -16520  77  10  803
1477473474.429: -16960  77  10  803
1477473474.432: -17271  77  10  803
1477473474.432: -17534  77  10  803
1477473474.434: -17776  77  10  803
1477473474.443: -17959  77  10  803
1477473474.443: -18048  77  10  803
1477473474.454: -18047  77  10  803
1477473474.454: -17982  77  10  803
1477473474.454: -17869  77  10  803
1477473474.454: -17726  77  10  803
1477473474.454: -17597  77  10  803
1477473474.455: -17530  77  10  803
1477473474.455: -17536  77  10  803
1477473474.455: -17578  77  10  803
1477473474.456: -17590  77  10  803
1477473474.458: -17533  77  10  803
1477473474.458: -17413  77  10  803
1477473474.461: -17258  77  10  803
1477473474.465: -17097  77  10  803
1477473474.465: -16951  77  10  803
1477473474.477: -16838  77  10  803
1477473474.477: -16772  77  10  803
1477473474.477: -16743  77  10  803
1477473474.477: -16713  77  10  803
1477473474.477: -16632  77  10  803
1477473474.479: -16482  77  10  803
1477473474.479: -16294  77  10  803
1477473474.481: -16114  77  10  803
1477473474.482: -15962  77  10  803
1477473474.483: -15818  77  10  803
1477473474.486: -15658  77  10  803
1477473474.490: -15495  77  10  803
1477473474.491: -15360  77  10  803
1477473474.492: -15259  77  10  803
1477473474.493: -15151  77  10  803
1477473474.498: -14991  77  10  803
1477473474.508: -14780  77  10  803
1477473474.508: -14570  77  10  803
1477473474.509: -14404  77  10  803
1477473474.509: -14271  77  10  803
1477473474.509: -14129  77  10  803
1477473474.509: -13958  77  10  803
1477473474.512: -13785  77  10  803
1477473474.512: -13644  77  10  803
1477473474.513: -13543  77  10  803
1477473474.515: -13455  78  10  773
1477473474.517: -13354  78  10  773
1477473474.520: -13240  78  10  773
1477473474.528: -13127  78  10  773
1477473474.528: -13016  78  10  773
1477473474.528: -12902  78  10  773
1477473474.529: -12780  78  10  773
1477473474.529: -12653  78  10  773
1477473474.531: -12523  78  10  773
1477473474.533: -12383  78  10  773
1477473474.535: -12231  78  10  773
1477473474.540: -12078  78  10  773
1477473474.540: -11940  78  10  773
1477473474.541: -11828  78  10  773
1477473474.542: -11735  78  10  773
1477473474.545: -11651  78  10  773
1477473474.548: -11569  78  10  773
1477473474.549: -11483  78  10  773
1477473474.553: -11391  78  10  773
1477473474.554: -11293  78  10  773
1477473474.556: -11196  78  10  773
1477473474.571: -11109  78  10  773
1477473474.572: -11028  78  10  773
1477473474.572: -10935  78  10  773
1477473474.573: -10815  78  10  773
1477473474.574: -10679  78  10  773
1477473474.575: -10551  78  10  773
1477473474.575: -10448  78  10  773
1477473474.576: -10359  78  10  773
1477473474.591: -10266  78  10  773
1477473474.592: -10160  78  10  773
1477473474.592: -10053  78  10  773
1477473474.592:  -9965  78  10  773
1477473474.592:  -9907  78  10  773
1477473474.592:  -9869  78  10  773
1477473474.593:  -9828  78  10  773
1477473474.593:  -9772  78  10  773
1477473474.593:  -9707  78  10  773
1477473474.593:  -9655  78  10  773
1477473474.593:  -9623  78  10  773
1477473474.595:  -9597  78  10  773
1477473474.596:  -9555  78  10  773
1477473474.599:  -9503  78  10  773
1477473474.600:  -9476  78  10  773
1477473474.601:  -9502  78  10  773
1477473474.608:  -9570  78  10  773
1477473474.608:  -9635  78  10  773
1477473474.609:  -9668  78  10  773
1477473474.610:  -9681  78  10  773
1477473474.612:  -9708  78  10  773
1477473474.613:  -9764  78  10  773
1477473474.615:  -9837  78  10  773
1477473474.621:  -9905  78  10  773
1477473474.621:  -9955  78  10  773
1477473474.624:  -9983  78  10  773
1477473474.625:  -9995  78  10  773
1477473474.626: -10007  78  10  773
1477473474.630: -10037  78  10  773
1477473474.630: -10092  78  10  773
1477473474.646: -10158  78  10  773
1477473474.646: -10205  78  10  773
1477473474.646: -10223  78  10  773
1477473474.647: -10228  78  10  773
1477473474.647: -10243  78  10  773
1477473474.647: -10277  78  10  773
1477473474.647: -10319  78  10  773
1477473474.654: -10350  78  10  773
1477473474.667: -10359  78  10  773
1477473474.667: -10344  78  10  773
1477473474.667: -10306  78  10  773
1477473474.667: -10245  78  10  773
1477473474.667: -10171  78  10  773
1477473474.667: -10091  78  10  773
1477473474.668: -10008  78  10  773
1477473474.668:  -9913  78  10  773
1477473474.668:  -9793  78  10  773
1477473474.668:  -9640  78  10  773
1477473474.668:  -9466  78  10  773
1477473474.670:  -9287  78  10  773
1477473474.672:  -9112  78  10  773
1477473474.676:  -8931  78  10  773
1477473474.676:  -8723  78  10  773
1477473474.678:  -8476  78  10  773
1477473474.679:  -8198  78  10  773
1477473474.684:  -7920  78  10  773
1477473474.684:  -7665  78  10  773
1477473474.685:  -7436  78  10  773
1477473474.691:  -7212  78  10  773
1477473474.692:  -6981  78  10  773
1477473474.692:  -6753  78  10  773
1477473474.695:  -6562  78  10  773
1477473474.715:  -6426  78  10  773
1477473474.715:  -6327  78  10  773
1477473474.715:  -6224  78  10  773
1477473474.715:  -6097  78  10  773
1477473474.716:  -5966  78  10  773
1477473474.716:  -5861  78  10  773
1477473474.716:  -5778  78  10  773
1477473474.716:  -5682  78  10  773
1477473474.717:  -5544  78  10  773
1477473474.717:  -5382  78  10  773
1477473474.717:  -5236  78  10  773
1477473474.717:  -5120  78  10  773
1477473474.719:  -5008  78  10  773
1477473474.720:  -4874  78  10  773
1477473474.722:  -4730  78  10  773
1477473474.727:  -4610  78  10  773
1477473474.727:  -4526  78  10  773
1477473474.730:  -4454  78  10  773
1477473474.744:  -4371  78  10  773
1477473474.745:  -4286  78  10  773
1477473474.745:  -4227  78  10  773
1477473474.745:  -4196  78  10  773
1477473474.745:  -4165  78  10  773
1477473474.745:  -4107  78  10  773
1477473474.745:  -4030  78  10  773
1477473474.745:  -3962  78  10  773
1477473474.746:  -3907  78  10  773
1477473474.749:  -3839  78  10  773
1477473474.749:  -3736  78  10  773
1477473474.753:  -3610  78  10  773
1477473474.754:  -3501  78  10  773
1477473474.756:  -3437  78  10  773
1477473474.757:  -3413  78  10  773
1477473474.759:  -3400  78  10  773
1477473474.769:  -3374  78  10  773
1477473474.769:  -3335  78  10  773
1477473474.769:  -3290  78  10  773
1477473474.770:  -3247  78  10  773
1477473474.770:  -3198  78  10  773
1477473474.771:  -3133  78  10  773
1477473474.773:  -3043  78  10  773
1477473474.777:  -2936  78  10  773
1477473474.777:  -2834  78  10  773
1477473474.779:  -2754  78  10  773
1477473474.780:  -2700  78  10  773
1477473474.783:  -2660  78  10  773
1477473474.793:  -2626  78  10  773
1477473474.793:  -2597  78  10  773
1477473474.793:  -2573  78  10  773
1477473474.793:  -2546  78  10  773
1477473474.794:  -2503  78  10  773
1477473474.795:  -2438  78  10  773
1477473474.798:  -2366  78  10  773
1477473474.799:  -2304  78  10  773
1477473474.801:  -2254  78  10  773
1477473474.808:  -2206  78  10  773
1477473474.808:  -2158  78  10  773
1477473474.809:  -2120  78  10  773
1477473474.810:  -2103  78  10  773
1477473474.810:  -2097  78  10  773
1477473474.812:  -2076  78  10  773
1477473474.829:  -2031  78  10  773
1477473474.887:  -1980  78  10  773
1477473474.887:  -1943  78  10  773
1477473474.887:  -1918  78  10  773
1477473474.888:  -1879  78  10  773
1477473474.888:  -1811  78  10  773
1477473474.888:  -1732  78  10  773
1477473474.888:  -1672  78  10  773
1477473474.888:  -1637  78  10  773
1477473474.889:  -1609  78  10  773
1477473474.889:  -1574  78  10  773
1477473474.889:  -1546  78  10  773
1477473474.890:  -1545  78  10  773
1477473474.890:  -1567  78  10  773
1477473474.890:  -1579  78  10  773
1477473474.890:  -1554  78  10  773
1477473474.891:  -1505  78  10  773
1477473474.891:  -1463  78  10  773
1477473474.891:  -1441  78  10  773
1477473474.891:  -1421  78  10  773
1477473474.891:  -1379  78  10  773
1477473474.891:  -1315  78  10  773
1477473474.891:  -1245  78  10  773
1477473474.892:  -1185  78  10  773
1477473474.892:  -1133  78  10  773
1477473474.892:  -1085  78  10  773
1477473474.892:  -1044  78  10  773
1477473474.892:  -1015  78  10  773
1477473474.892:   -995  78  10  773
1477473474.892:   -969  78  10  773
1477473474.892:   -923  78  10  773
1477473474.893:   -864  78  10  773
1477473474.893:   -818  78  10  773
1477473474.893:   -805  78  10  773
1477473474.893:   -824  78  10  773
1477473474.893:   -848  78  10  773
1477473474.893:   -846  78  10  773
1477473474.894:   -806  78  10  773
1477473474.894:   -748  78  10  773
1477473474.895:   -703  78  10  773
1477473474.895:   -690  78  10  773
1477473474.895:   -700  78  10  773
1477473474.896:   -704  78  10  773
1477473474.899:   -680  78  10  773
1477473474.900:   -629  78  10  773
1477473474.904:   -570  78  10  773
1477473474.905:   -523  78  10  773
1477473474.920:   -492  78  10  773
1477473474.920:   -465  78  10  773
1477473474.920:   -439  78  10  773
1477473474.920:   -414  78  10  773
1477473474.920:   -398  78  10  773
1477473474.920:   -392  78  10  773
1477473474.920:   -391  78  10  773
1477473474.921:   -384  78  10  773
1477473474.922:   -373  78  10  773
1477473474.927:   -364  78  10  773
1477473474.927:   -362  78  10  773
1477473474.928:   -356  78  10  773
1477473474.930:   -320  78  10  773
1477473474.931:   -241  78  10  773
1477473474.933:   -138  78  10  773
1477473474.937:    -53  78  10  773
1477473474.947:    -20  78  10  773
1477473474.948:    -33  78  10  773
1477473474.948:    -56  78  10  773
1477473474.948:    -61  78  10  773
1477473474.948:    -45  78  10  773
1477473474.948:    -26  78  10  773
1477473474.950:    -19  78  10  773
1477473474.954:    -20  78  10  773
1477473474.954:    -11  78  10  773
1477473474.956:     20  78  10  773
1477473474.957:     73  78  10  773
1477473474.958:    131  78  10  773
1477473474.961:    172  78  10  773
1477473474.963:    184  78  10  773
1477473474.973:    175  78  10  773
1477473474.973:    163  78  10  773
1477473474.973:    161  78  10  773
1477473474.973:    166  78  10  773
1477473474.973:    171  78  10  773
1477473474.975:    180  78  10  773
1477473474.977:    209  78  10  773
1477473474.982:    257  78  10  773
1477473474.982:    305  78  10  773
1477473474.983:    329  78  10  773
1477473474.996:    333  78  10  773
1477473474.996:    340  78  10  773
1477473474.996:    365  78  10  773
1477473474.996:    390  78  10  773
1477473474.996:    383  78  10  773
1477473474.997:    332  78  10  773
1477473474.998:    256  78  10  773
1477473474.998:    190  78  10  773
1477473475.000:    156  78  10  773
1477473475.002:    148  78  10  773
1477473475.007:    146  78  10  773
1477473475.012:    134  78  10  773
1477473475.013:    111  78  10  773
1477473475.013:     90  78  10  773
1477473475.013:     78  78  10  773
1477473475.014:     71  78  10  773
1477473475.016:     60  78  10  773
1477473475.018:     40  78  10  773
1477473475.029:     19  78  10  773
1477473475.029:      4  78  10  773
1477473475.051:     -3  78  10  773
1477473475.052:     -2  78  10  773
1477473475.053:     12  78  10  773
1477473475.059:     47  78  10  773
1477473475.059:    102  78  10  773
1477473475.059:    169  78  10  773
1477473475.059:    231  78  10  773
1477473475.060:    280  78  10  773
1477473475.061:    317  78  10  773
1477473475.062:    350  78  10  773
1477473475.063:    381  78  10  773
1477473475.065:    412  78  10  773
1477473475.066:    438  78  10  773
1477473475.067:    467  78  10  773
1477473475.067:    504  78  10  773
1477473475.067:    555  78  10  773
1477473475.068:    612  78  10  773
1477473475.068:    668  78  10  773
1477473475.068:    719  78  10  773
1477473475.068:    769  78  10  773
1477473475.068:    815  78  10  773
1477473475.069:    842  78  10  773
1477473475.069:    839  78  10  773
1477473475.070:    820  78  10  773
1477473475.089:    811  78  10  773
1477473475.089:    822  78  10  773
1477473475.089:    833  78  10  773
1477473475.090:    821  78  10  773
1477473475.090:    797  78  10  773
1477473475.091:    794  78  10  773
1477473475.091:    831  78  10  773
1477473475.091:    882  78  10  773
1477473475.091:    905  78  10  773
1477473475.092:    894  78  10  773
1477473475.092:    883  78  10  773
1477473475.093:    900  78  10  773
1477473475.097:    934  78  10  773
1477473475.097:    950  78  10  773
1477473475.099:    935  78  10  773
1477473475.102:    907  78  10  773
1477473475.121:    886  78  10  773
1477473475.121:    877  78  10  773
1477473475.121:    871  78  10  773
1477473475.121:    870  78  10  773
1477473475.121:    888  78  10  773
1477473475.122:    925  78  10  773
1477473475.122:    964  78  10  773
1477473475.122:    989  78  10  773
1477473475.122:   1003  78  10  773
1477473475.122:   1014  78  10  773
1477473475.124:   1026  78  10  773
1477473475.125:   1034  78  10  773
1477473475.128:   1037  78  10  773
1477473475.128:   1030  78  10  773
1477473475.130:   1001  78  10  773
1477473475.131:    933  78  10  773
1477473475.139:    828  78  10  773
1477473475.139:    719  78  10  773
1477473475.139:    635  78  10  773
1477473475.140:    565  78  10  773
1477473475.141:    473  78  10  773
1477473475.147:    336  78  10  773
1477473475.155:    181  78  10  773
1477473475.156:     33  78  10  773
1477473475.157:   -118  78  10  773
1477473475.157:   -300  78  10  773
1477473475.157:   -516  78  10  773
1477473475.157:   -741  78  10  773
1477473475.161:   -958  78  10  773
1477473475.161:  -1176  78  10  773
1477473475.163:  -1391  78  10  773
1477473475.164:  -1552  78  10  773
1477473475.188:  -1594  78  10  773
1477473475.188:  -1508  78  10  773
1477473475.189:  -1340  78  10  773
1477473475.189:  -1115  78  10  773
1477473475.189:   -767  78  10  773
1477473475.189:   -190  78  10  773
1477473475.190:    630  78  10  773
1477473475.190:   1569  78  10  773
1477473475.190:   2436  78  10  773
1477473475.190:   3109  78  10  773
1477473475.191:   3587  78  10  773
1477473475.191:   3939  78  10  773
1477473475.191:   4197  78  10  773
1477473475.192:   4313  78  10  773
1477473475.193:   4204  78  10  773
1477473475.197:   3838  78  10  773
1477473475.198:   3298  78  10  773
1477473475.199:   2747  78  10  773
1477473475.200:   2323  78  10  773
1477473475.206:   2048  78  10  773
1477473475.223:   1854  78  10  773
1477473475.223:   1680  78  10  773
1477473475.223:   1525  78  10  773
1477473475.223:   1431  78  10  773
1477473475.223:   1404  78  10  773
1477473475.224:   1404  76  10  766
1477473475.224:   1386  76  10  766
1477473475.224:   1335  76  10  766
1477473475.224:   1260  76  10  766
1477473475.226:   1168  76  10  766
1477473475.226:   1051  76  10  766
1477473475.228:    929  76  10  766
1477473475.228:    843  76  10  766
1477473475.233:    817  76  10  766
1477473475.233:    839  76  10  766
1477473475.235:    868  76  10  766
1477473475.236:    878  76  10  766
1477473475.239:    867  76  10  766
1477473475.255:    836  76  10  766
1477473475.255:    785  76  10  766
1477473475.255:    717  76  10  766
1477473475.256:    656  76  10  766
1477473475.256:    634  76  10  766
1477473475.257:    661  76  10  766
1477473475.257:    711  76  10  766
1477473475.257:    746  76  10  766
1477473475.257:    751  76  10  766
1477473475.261:    735  76  10  766
1477473475.261:    713  76  10  766
1477473475.262:    681  76  10  766
1477473475.264:    632  76  10  766
1477473475.268:    572  76  10  766
1477473475.280:    529  76  10  766
1477473475.281:    529  76  10  766
1477473475.281:    576  76  10  766
1477473475.281:    640  76  10  766
1477473475.281:    687  76  10  766
1477473475.281:    707  76  10  766
1477473475.282:    718  76  10  766
1477473475.282:    745  76  10  766
1477473475.284:    784  76  10  766
1477473475.288:    802  76  10  766
1477473475.288:    770  76  10  766
1477473475.292:    699  76  10  766
1477473475.293:    634  76  10  766
1477473475.293:    605  76  10  766
1477473475.295:    605  76  10  766
1477473475.297:    598  76  10  766
1477473475.302:    565  76  10  766
1477473475.302:    525  76  10  766
1477473475.306:    510  76  10  766
1477473475.306:    532  76  10  766
1477473475.307:    571  76  10  766
1477473475.309:    598  76  10  766
1477473475.321:    601  76  10  766
1477473475.321:    589  76  10  766
1477473475.321:    572  76  10  766
1477473475.321:    555  76  10  766
1477473475.322:    532  76  10  766
1477473475.322:    500  76  10  766
1477473475.322:    460  76  10  766
1477473475.325:    418  76  10  766
1477473475.326:    386  76  10  766
1477473475.329:    373  76  10  766
1477473475.330:    384  76  10  766
1477473475.334:    408  76  10  766
1477473475.353:    425  76  10  766
1477473475.353:    425  76  10  766
1477473475.354:    409  76  10  766
1477473475.354:    389  76  10  766
1477473475.354:    369  76  10  766
1477473475.354:    340  76  10  766
1477473475.354:    292  76  10  766
1477473475.354:    230  76  10  766
1477473475.356:    172  76  10  766
1477473475.356:    137  76  10  766
1477473475.356:    120  76  10  766
1477473475.356:    100  76  10  766
1477473475.357:     66  76  10  766
1477473475.360:     28  76  10  766
1477473475.362:      8  76  10  766
1477473475.365:     11  76  10  766
1477473475.376:     17  76  10  766
1477473475.376:      6  76  10  766
1477473475.376:    -20  76  10  766
1477473475.377:    -45  76  10  766
1477473475.377:    -63  76  10  766
1477473475.377:    -79  76  10  766
1477473475.379:   -105  76  10  766
1477473475.379:   -143  76  10  766
1477473475.381:   -190  76  10  766
1477473475.383:   -245  76  10  766
1477473475.385:   -307  76  10  766
1477473475.397:   -367  76  10  766
1477473475.397:   -411  76  10  766
1477473475.398:   -435  76  10  766
1477473475.398:   -453  76  10  766
1477473475.399:   -478  76  10  766
1477473475.399:   -504  76  10  766
1477473475.399:   -515  76  10  766
1477473475.403:   -504  76  10  766
1477473475.403:   -479  76  10  766
1477473475.419:   -459  76  10  766
1477473475.419:   -447  76  10  766
1477473475.420:   -437  76  10  766
1477473475.420:   -421  76  10  766
1477473475.420:   -404  76  10  766
1477473475.421:   -396  76  10  766
1477473475.421:   -399  76  10  766
1477473475.421:   -400  76  10  766
1477473475.423:   -389  76  10  766
