timestamp: ADC HeartRate4sAverage HeartRate30sAverage HRV8sAverage
1477467227.399:     43  71   9  830
1477467227.399:     26  71   9  830
1477467227.402:     11  71   9  830
1477467227.402:     -1  71   9  830
1477467227.402:    -18  71   9  830
1477467227.402:    -41  71   9  830
1477467227.402:    -60  71   9  830
1477467227.402:    -62  71   9  830
1477467227.403:    -45  71   9  830
1477467227.403:    -25  71   9  830
1477467227.403:    -18  71   9  830
1477467227.403:    -27  71   9  830
1477467227.403:    -39  71   9  830
1477467227.403:    -36  71   9  830
1477467227.404:     -9  71   9  830
1477467227.404:     35  71   9  830
1477467227.404:     83  71   9  830
1477467227.404:    123  71   9  830
1477467227.406:    156  71   9  830
1477467227.411:    187  71   9  830
1477467227.411:    218  71   9  830
1477467227.413:    250  71   9  830
1477467227.414:    289  71   9  830
1477467227.415:    341  71   9  830
1477467227.421:    400  71   9  830
1477467227.421:    444  71   9  830
1477467227.424:    455  71   9  830
1477467227.424:    440  71   9  830
1477467227.427:    427  71   9  830
1477467227.428:    439  71   9  830
1477467227.430:    472  71   9  830
1477467227.431:    503  71   9  830
1477467227.433:    511  71   9  830
1477467227.438:    499  71   9  830
1477467227.445:    481  71   9  830
1477467227.446:    474  71   9  830
1477467227.447:    484  71   9  830
1477467227.448:    505  71   9  830
1477467227.448:    523  71   9  830
1477467227.451:    517  71   9  830
1477467227.452:    486  71   9  830
1477467227.452:    446  71   9  830
1477467227.454:    422  71   9  830
1477467227.455:    425  71   9  830
1477467227.466:    442  71   9  830
1477467227.466:    453  71   9  830
1477467227.466:    453  71   9  830
1477467227.466:    451  71   9  830
1477467227.467:    449  71   9  830
1477467227.468:    444  71   9  830
1477467227.469:    427  71   9  830
1477467227.470:    409  71   9  830
1477467227.473:    408  71   9  830
1477467227.475:    429  71   9  830
1477467227.479:    455  71   9  830
1477467227.480:    464  71   9  830
1477467227.493:    446  71   9  830
1477467227.493:    417  71   9  830
1477467227.493:    402  71   9  830
1477467227.493:    409  71   9  830
1477467227.493:    419  71   9  830
1477467227.493:    408  71   9  830
1477467227.493:    366  71   9  830
1477467227.495:    307  71   9  830
1477467227.496:    259  71   9  830
1477467227.498:    253  71   9  830
1477467227.500:    318  71   9  830
1477467227.502:    462  71   9  830
1477467227.507:    658  71   9  830
1477467227.507:    845  71   9  830
1477467227.515:    970  71   9  830
1477467227.515:   1026  71   9  830
1477467227.515:   1054  71   9  830
1477467227.515:   1054  71   9  830
1477467227.516:    946  71   9  830
1477467227.521:    640  71   9  830
1477467227.521:    141  71   9  830
1477467227.523:   -476  71   9  830
1477467227.524:  -1185  71   9  830
1477467227.525:  -2074  71   9  830
1477467227.528:  -3221  71   9  830
1477467227.530:  -4522  71   9  830
1477467227.535:  -5719  71   9  830
1477467227.535:  -6612  71   9  830
1477467227.536:  -7207  71   9  830
1477467227.538:  -7589  71   9  830
1477467227.550:  -7702  71   9  830
1477467227.551:  -7348  71   9  830
1477467227.551:  -6427  71   9  830
1477467227.551:  -5119  71   9  830
1477467227.551:  -3754  71   9  830
1477467227.552:  -2537  71   9  830
1477467227.553:  -1452  71   9  830
1477467227.554:   -435  71   9  830
1477467227.555:    441  71   9  830
1477467227.558:   1012  71   9  830
1477467227.572:   1208  71   9  830
1477467227.572:   1142  71   9  830
1477467227.572:    992  71   9  830
1477467227.573:    862  71   9  830
1477467227.573:    765  71   9  830
1477467227.573:    707  71   9  830
1477467227.573:    713  71   9  830
1477467227.576:    802  71   9  830
1477467227.576:    953  71   9  830
1477467227.578:   1119  71   9  830
1477467227.579:   1265  71   9  830
1477467227.581:   1373  71   9  830
1477467227.583:   1427  71   9  830
1477467227.586:   1403  71   9  830
1477467227.595:   1303  71   9  830
1477467227.596:   1165  71   9  830
1477467227.596:   1041  71   9  830
1477467227.598:    968  71   9  830
1477467227.599:    957  71   9  830
1477467227.599:    994  71   9  830
1477467227.600:   1053  71   9  830
1477467227.604:   1104  71   9  830
1477467227.613:   1122  71   9  830
1477467227.613:   1095  71   9  830
1477467227.613:   1033  71   9  830
1477467227.613:    962  71   9  830
1477467227.613:    920  71   9  830
1477467227.613:    921  71   9  830
1477467227.617:    952  71   9  830
1477467227.618:    976  71   9  830
1477467227.619:    971  71   9  837
1477467227.620:    945  71   9  837
1477467227.621:    919  71   9  837
1477467227.627:    902  71   9  837
1477467227.627:    883  71   9  837
1477467227.631:    847  71   9  837
1477467227.631:    801  71   9  837
1477467227.632:    768  71   9  837
1477467227.649:    758  71   9  837
1477467227.649:    765  71   9  837
1477467227.649:    770  71   9  837
1477467227.650:    770  71   9  837
1477467227.650:    771  71   9  837
1477467227.650:    775  71   9  837
1477467227.650:    766  71   9  837
1477467227.650:    733  71   9  837
1477467227.650:    689  71   9  837
1477467227.653:    667  71   9  837
1477467227.653:    684  71   9  837
1477467227.659:    721  71   9  837
1477467227.659:    739  71   9  837
1477467227.660:    720  71   9  837
1477467227.663:    682  71   9  837
1477467227.663:    661  71   9  837
1477467227.665:    663  71   9  837
1477467227.668:    663  71   9  837
1477467227.673:    638  71   9  837
1477467227.676:    597  71   9  837
1477467227.676:    570  71   9  837
1477467227.678:    572  71   9  837
1477467227.679:    587  71   9  837
1477467227.681:    591  71   9  837
1477467227.682:    577  71   9  837
1477467227.686:    559  71   9  837
1477467227.709:    554  71   9  837
1477467227.710:    558  71   9  837
1477467227.710:    552  71   9  837
1477467227.710:    524  71   9  837
1477467227.710:    479  71   9  837
1477467227.710:    429  71   9  837
1477467227.710:    388  71   9  837
1477467227.711:    367  71   9  837
1477467227.711:    366  71   9  837
1477467227.711:    377  71   9  837
1477467227.711:    382  71   9  837
1477467227.711:    374  71   9  837
1477467227.711:    365  71   9  837
1477467227.712:    373  71   9  837
1477467227.713:    398  71   9  837
1477467227.714:    412  71   9  837
1477467227.718:    388  71   9  837
1477467227.718:    329  71   9  837
1477467227.720:    265  71   9  837
1477467227.722:    221  71   9  837
1477467227.733:    189  71   9  837
1477467227.733:    148  71   9  837
1477467227.734:     87  71   9  837
1477467227.734:     21  71   9  837
1477467227.735:    -27  71   9  837
1477467227.739:    -48  71   9  837
1477467227.740:    -55  71   9  837
1477467227.740:    -62  71   9  837
1477467227.741:    -79  71   9  837
1477467227.742:   -105  71   9  837
1477467227.752:   -132  71   9  837
1477467227.753:   -156  71   9  837
1477467227.754:   -176  71   9  837
1477467227.754:   -202  71   9  837
1477467227.755:   -249  71   9  837
1477467227.756:   -320  71   9  837
1477467227.757:   -399  71   9  837
1477467227.760:   -468  71   9  837
1477467227.769:   -519  71   9  837
1477467227.770:   -566  71   9  837
1477467227.771:   -623  71   9  837
1477467227.771:   -687  71   9  837
1477467227.772:   -744  71   9  837
1477467227.775:   -789  71   9  837
1477467227.775:   -832  71   9  837
1477467227.776:   -883  71   9  837
1477467227.786:   -932  71   9  837
1477467227.786:   -954  71   9  837
1477467227.787:   -939  71   9  837
1477467227.787:   -916  71   9  837
1477467227.787:   -928  71   9  837
1477467227.788:   -983  71   9  837
1477467227.789:  -1046  71   9  837
1477467227.789:  -1071  71   9  837
1477467227.792:  -1048  71   9  837
1477467227.797:  -1016  71   9  837
1477467227.804:  -1015  71   9  837
1477467227.804:  -1040  71   9  837
1477467227.804:  -1053  71   9  837
1477467227.804:  -1027  71   9  837
1477467227.804:   -978  71   9  837
1477467227.804:   -938  71   9  837
1477467227.810:   -919  71   9  837
1477467227.810:   -907  71   9  837
1477467227.812:   -884  71   9  837
1477467227.813:   -851  71   9  837
1477467227.815:   -813  71   9  837
1477467227.817:   -769  71   9  837
1477467227.825:   -710  71   9  837
1477467227.825:   -641  71   9  837
1477467227.825:   -578  71   9  837
1477467227.826:   -534  71   9  837
1477467227.826:   -498  71   9  837
1477467227.832:   -446  71   9  837
1477467227.832:   -365  71   9  837
1477467227.835:   -263  71   9  837
1477467227.844:   -159  71   9  837
1477467227.844:    -63  71   9  837
1477467227.844:     32  71   9  837
1477467227.844:    133  71   9  837
1477467227.845:    230  71   9  837
1477467227.845:    303  71   9  837
1477467227.845:    339  71   9  837
1477467227.851:    350  71   9  837
1477467227.851:    359  71   9  837
1477467227.854:    383  71   9  837
1477467227.863:    415  71   9  837
1477467227.863:    440  71   9  837
1477467227.863:    457  71   9  837
1477467227.863:    483  71   9  837
1477467227.863:    536  71   9  837
1477467227.867:    608  71   9  837
1477467227.867:    671  71   9  837
1477467227.870:    708  71   9  837
1477467227.871:    722  71   9  837
1477467227.872:    733  71   9  837
1477467227.875:    750  71   9  837
1477467227.875:    763  71   9  837
1477467227.883:    760  71   9  837
1477467227.884:    745  71   9  837
1477467227.887:    736  71   9  837
1477467227.887:    750  71   9  837
1477467227.887:    787  71   9  837
1477467227.888:    828  71   9  837
1477467227.889:    853  71   9  837
1477467227.894:    856  71   9  837
1477467227.894:    844  71   9  837
1477467227.895:    826  71   9  837
1477467227.906:    806  71   9  837
1477467227.906:    779  71   9  837
1477467227.906:    742  71   9  837
1477467227.906:    701  71   9  837
1477467227.908:    670  71   9  837
1477467227.909:    659  71   9  837
1477467227.911:    671  71   9  837
1477467227.912:    696  71   9  837
1477467227.915:    720  71   9  837
1477467227.916:    735  71   9  837
1477467227.922:    742  71   9  837
1477467227.998:    743  71   9  837
1477467228.005:    739  71   9  837
1477467228.005:    727  71   9  837
1477467228.005:    704  71   9  837
1477467228.006:    671  71   9  837
1477467228.006:    637  71   9  837
1477467228.006:    616  71   9  837
1477467228.006:    617  71   9  837
1477467228.006:    637  71   9  837
1477467228.006:    663  71   9  837
1477467228.007:    683  71   9  837
1477467228.007:    697  71   9  837
1477467228.007:    712  71   9  837
1477467228.007:    730  71   9  837
1477467228.007:    741  71   9  837
1477467228.008:    734  71   9  837
1477467228.008:    709  71   9  837
1477467228.008:    683  71   9  837
1477467228.008:    676  71   9  837
1477467228.008:    691  71   9  837
1477467228.008:    708  71   9  837
1477467228.008:    705  71   9  837
1477467228.008:    681  71   9  837
1477467228.009:    658  71   9  837
1477467228.009:    659  71   9  837
1477467228.009:    677  71   9  837
1477467228.009:    684  71   9  837
1477467228.009:    661  71   9  837
1477467228.009:    632  71   9  837
1477467228.009:    635  71   9  837
1477467228.009:    677  71   9  837
1477467228.010:    723  71   9  837
1477467228.010:    731  71   9  837
1477467228.010:    702  71   9  837
1477467228.010:    671  71   9  837
1477467228.010:    664  71   9  837
1477467228.010:    670  71   9  837
1477467228.010:    661  71   9  837
1477467228.010:    629  71   9  837
1477467228.011:    598  71   9  837
1477467228.011:    588  71   9  837
1477467228.011:    591  71   9  837
1477467228.011:    580  71   9  837
1477467228.011:    547  71   9  837
1477467228.011:    511  71   9  837
1477467228.011:    493  71   9  837
1477467228.011:    491  71   9  837
1477467228.012:    487  71   9  837
1477467228.012:    473  71   9  837
1477467228.017:    461  71   9  837
1477467228.017:    466  71   9  837
1477467228.019:    483  71   9  837
1477467228.020:    495  71   9  837
1477467228.023:    491  71   9  837
1477467228.025:    478  71   9  837
1477467228.032:    469  71   9  837
1477467228.032:    464  71   9  837
1477467228.032:    457  71   9  837
1477467228.032:    443  71   9  837
1477467228.034:    422  71   9  837
1477467228.043:    401  71   9  837
1477467228.044:    384  71   9  837
1477467228.044:    372  71   9  837
1477467228.044:    368  71   9  837
1477467228.044:    368  71   9  837
1477467228.046:    367  71   9  837
1477467228.049:    361  71   9  837
1477467228.057:    357  71   9  837
1477467228.057:    364  71   9  837
1477467228.057:    382  71   9  837
1477467228.058:    396  71   9  837
1477467228.058:    394  71   9  837
1477467228.064:    379  71   9  837
1477467228.065:    370  71   9  837
1477467228.066:    374  71   9  837
1477467228.070:    383  71   9  837
1477467228.071:    379  71   9  837
1477467228.072:    363  71   9  837
1477467228.074:    350  71   9  837
1477467228.075:    354  71   9  837
1477467228.076:    367  71   9  837
1477467228.090:    366  71   9  837
1477467228.090:    340  71   9  837
1477467228.090:    306  71   9  837
1477467228.091:    286  71   9  837
1477467228.091:    286  71   9  837
1477467228.091:    290  71   9  837
1477467228.093:    277  71   9  837
1477467228.093:    245  71   9  837
1477467228.094:    211  71   9  837
1477467228.097:    196  71   9  837
1477467228.111:    204  71   9  837
1477467228.112:    225  71   9  837
1477467228.112:    243  71   9  837
1477467228.112:    250  71   9  837
1477467228.113:    250  71   9  837
1477467228.113:    249  71   9  837
1477467228.113:    253  71   9  837
1477467228.113:    259  71   9  837
1477467228.115:    264  71   9  837
1477467228.116:    267  71   9  837
1477467228.119:    273  71   9  837
1477467228.122:    282  71   9  837
1477467228.123:    296  71   9  837
1477467228.125:    306  71   9  837
1477467228.127:    308  71   9  837
1477467228.132:    302  71   9  837
1477467228.147:    292  71   9  837
1477467228.148:    281  71   9  837
1477467228.149:    269  71   9  837
1477467228.150:    260  71   9  837
1477467228.151:    258  71   9  837
1477467228.152:    261  71   9  837
1477467228.153:    263  71   9  837
1477467228.154:    258  71   9  837
1477467228.155:    250  71   9  837
1477467228.156:    253  71   9  837
1477467228.157:    273  71   9  837
1477467228.157:    301  71   9  837
1477467228.168:    313  71   9  837
1477467228.168:    300  71   9  837
1477467228.168:    274  71   9  837
1477467228.168:    260  71   9  837
1477467228.169:    267  71   9  837
1477467228.169:    283  71   9  837
1477467228.169:    284  71   9  837
1477467228.170:    260  71   9  837
1477467228.170:    218  71   9  837
1477467228.170:    179  71   9  837
1477467228.173:    161  71   9  837
1477467228.180:    162  71   9  837
1477467228.180:    169  71   9  837
1477467228.182:    166  71   9  837
1477467228.183:    151  71   9  837
1477467228.184:    145  71   9  837
1477467228.184:    165  71   9  837
1477467228.188:    205  71   9  837
1477467228.201:    237  71   9  837
1477467228.202:    235  71   9  837
1477467228.202:    205  71   9  837
1477467228.202:    175  71   9  837
1477467228.203:    164  71   9  837
1477467228.203:    160  71   9  837
1477467228.203:    137  71   9  837
1477467228.204:     92  71   9  837
1477467228.205:     44  71   9  837
1477467228.207:     17  71   9  837
1477467228.208:     10  71   9  837
1477467228.209:      5  71   9  837
1477467228.212:    -10  71   9  837
1477467228.214:    -29  71   9  837
1477467228.219:    -42  71   9  837
1477467228.219:    -45  71   9  837
1477467228.220:    -47  71   9  837
1477467228.222:    -52  71   9  837
1477467228.223:    -63  71   9  837
1477467228.226:    -74  71   9  837
1477467228.240:    -81  71   9  837
1477467228.240:    -85  71   9  837
1477467228.241:    -83  71   9  837
1477467228.241:    -77  71   9  837
1477467228.241:    -74  71   9  837
1477467228.242:    -75  71   9  837
1477467228.242:    -75  71   9  837
1477467228.243:    -64  71   9  837
1477467228.248:    -39  71   9  837
1477467228.249:     -6  71   9  837
1477467228.259:     31  71   9  837
1477467228.260:     72  71   9  837
1477467228.264:    121  71   9  837
1477467228.265:    174  71   9  837
1477467228.265:    223  71   9  837
1477467228.265:    266  71   9  837
1477467228.276:    312  71   9  837
1477467228.276:    365  71   9  837
1477467228.277:    410  71   9  837
1477467228.277:    427  71   9  837
1477467228.277:    410  71   9  837
1477467228.277:    381  71   9  837
1477467228.277:    369  71   9  837
1477467228.277:    389  71   9  837
1477467228.277:    424  71   9  837
1477467228.277:    454  71   9  837
1477467228.278:    469  71   9  837
1477467228.281:    479  71   9  837
1477467228.283:    493  71   9  837
1477467228.288:    511  71   9  837
1477467228.298:    522  71   9  837
1477467228.298:    517  71   9  837
1477467228.298:    495  71   9  837
1477467228.299:    466  71   9  837
1477467228.299:    437  71   9  837
1477467228.299:    413  71   9  837
1477467228.301:    395  71   9  837
1477467228.302:    386  71   9  837
1477467228.304:    389  71   9  837
1477467228.304:    402  71   9  837
1477467228.305:    414  71   9  837
1477467228.308:    419  71   9  837
1477467228.311:    420  71   9  837
1477467228.317:    431  71   9  837
1477467228.317:    458  71   9  837
1477467228.318:    490  71   9  837
1477467228.320:    513  71   9  837
1477467228.321:    519  71   9  837
1477467228.321:    513  71   9  837
1477467228.324:    502  71   9  837
1477467228.328:    488  71   9  837
1477467228.329:    467  71   9  837
1477467228.342:    443  71   9  837
1477467228.342:    416  71   9  837
1477467228.342:    378  71   9  837
1477467228.342:    328  71   9  837
1477467228.342:    282  71   9  837
1477467228.342:    259  71   9  837
1477467228.343:    261  71   9  837
1477467228.344:    285  71   9  837
1477467228.348:    353  71   9  837
1477467228.348:    501  71   9  837
1477467228.349:    729  71   9  837
1477467228.351:    967  71   9  837
1477467228.353:   1128  71   9  837
1477467228.355:   1189  71   9  837
1477467228.356:   1208  71   9  837
1477467228.361:   1209  71   9  837
1477467228.361:   1104  71   9  837
1477467228.363:    778  71   9  837
1477467228.378:    218  71   9  837
1477467228.379:   -483  71   9  837
1477467228.380:  -1281  71   9  837
1477467228.380:  -2260  71   9  837
1477467228.381:  -3495  71   9  837
1477467228.381:  -4866  71   9  837
1477467228.382:  -6096  71   9  837
1477467228.382:  -7002  71   9  837
1477467228.385:  -7626  71   9  837
1477467228.387:  -8067  71   9  837
1477467228.396:  -8231  71   9  837
1477467228.396:  -7870  71   9  837
1477467228.397:  -6876  71   9  837
1477467228.399:  -5485  71   9  837
1477467228.400:  -4092  71   9  837
1477467228.401:  -2909  71   9  837
1477467228.402:  -1872  71   9  837
1477467228.422:   -859  71   9  837
1477467228.439:     68  71   9  837
1477467228.439:    710  71   9  837
1477467228.439:    951  71   9  837
1477467228.440:    888  71   9  837
1477467228.440:    718  71   9  837
1477467228.440:    579  71   9  837
1477467228.440:    507  71   9  837
1477467228.440:    501  71   9  837
1477467228.440:    567  71   9  837
1477467228.440:    700  71   9  837
1477467228.441:    866  71   9  837
1477467228.441:   1023  71   9  837
1477467228.441:   1153  71   9  837
1477467228.441:   1252  71   9  837
1477467228.441:   1312  71   9  837
1477467228.441:   1307  71   9  837
1477467228.442:   1232  71   9  837
1477467228.442:   1127  71   9  837
1477467228.442:   1045  71   9  837
1477467228.442:   1021  71   9  837
1477467228.442:   1052  71   9  837
1477467228.444:   1115  71   9  837
1477467228.444:   1182  71   9  837
1477467228.449:   1227  71   9  837
1477467228.449:   1235  71   9  837
1477467228.454:   1199  71   9  837
1477467228.468:   1130  71   9  837
1477467228.468:   1054  71   9  837
1477467228.468:   1002  71   9  837
1477467228.468:    991  71   9  837
1477467228.468:   1010  71   9  839
1477467228.469:   1040  71   9  839
1477467228.469:   1066  71   9  839
1477467228.469:   1084  71   9  839
1477467228.469:   1087  71   9  839
1477467228.472:   1065  71   9  839
1477467228.472:   1019  71   9  839
1477467228.473:    968  71   9  839
1477467228.474:    940  71   9  839
1477467228.483:    944  71   9  839
1477467228.490:    964  71   9  839
1477467228.490:    974  71   9  839
1477467228.490:    964  71   9  839
1477467228.490:    945  71   9  839
1477467228.490:    922  71   9  839
1477467228.490:    894  71   9  839
1477467228.491:    858  71   9  839
1477467228.493:    824  71   9  839
1477467228.497:    808  71   9  839
1477467228.498:    807  71   9  839
1477467228.499:    805  71   9  839
1477467228.502:    794  71   9  839
1477467228.517:    784  71   9  839
1477467228.517:    792  71   9  839
1477467228.518:    820  71   9  839
1477467228.518:    844  71   9  839
1477467228.518:    845  71   9  839
1477467228.518:    823  71   9  839
1477467228.518:    791  71   9  839
1477467228.518:    764  71   9  839
1477467228.519:    742  71   9  839
1477467228.521:    721  71   9  839
1477467228.524:    696  71   9  839
1477467228.525:    667  71   9  839
1477467228.527:    635  71   9  839
1477467228.531:    604  71   9  839
1477467228.531:    577  71   9  839
1477467228.533:    560  71   9  839
1477467228.536:    556  71   9  839
1477467228.536:    563  71   9  839
1477467228.562:    576  71   9  839
1477467228.565:    581  71   9  839
1477467228.579:    568  71   9  839
1477467228.579:    542  71   9  839
1477467228.580:    519  71   9  839
1477467228.580:    507  71   9  839
1477467228.580:    497  71   9  839
1477467228.580:    475  71   9  839
1477467228.580:    438  71   9  839
1477467228.580:    404  71   9  839
1477467228.581:    393  71   9  839
1477467228.581:    396  71   9  839
1477467228.581:    386  71   9  839
1477467228.581:    346  71   9  839
1477467228.582:    291  71   9  839
1477467228.582:    253  71   9  839
1477467228.582:    244  71   9  839
1477467228.582:    245  71   9  839
1477467228.583:    229  71   9  839
1477467228.583:    189  71   9  839
1477467228.583:    140  71   9  839
1477467228.583:     98  71   9  839
1477467228.583:     62  71   9  839
1477467228.584:     24  71   9  839
1477467228.586:    -21  71   9  839
1477467228.587:    -71  71   9  839
1477467228.594:   -125  71   9  839
1477467228.594:   -186  71   9  839
1477467228.595:   -250  71   9  839
1477467228.597:   -303  71   9  839
1477467228.598:   -324  71   9  839
1477467228.599:   -309  71   9  839
1477467228.622:   -280  71   9  839
1477467228.622:   -274  71   9  839
1477467228.638:   -318  71   9  839
1477467228.639:   -406  71   9  839
1477467228.639:   -505  71   9  839
1477467228.640:   -581  71   9  839
1477467228.641:   -628  71   9  839
1477467228.642:   -668  71   9  839
1477467228.642:   -730  71   9  839
1477467228.642:   -821  71   9  839
1477467228.643:   -915  71   9  839
1477467228.643:   -974  71   9  839
1477467228.644:   -978  71   9  839
1477467228.646:   -946  71   9  839
1477467228.647:   -912  71   9  839
1477467228.647:   -900  71   9  839
1477467228.648:   -909  71   9  839
1477467228.648:   -922  71   9  839
1477467228.649:   -928  71   9  839
1477467228.649:   -926  71   9  839
1477467228.663:   -918  71   9  839
1477467228.664:   -907  71   9  839
1477467228.666:   -897  71   9  839
1477467228.666:   -893  71   9  839
1477467228.667:   -898  71   9  839
1477467228.668:   -901  71   9  839
1477467228.669:   -892  71   9  839
1477467228.670:   -864  71   9  839
1477467228.671:   -823  71   9  839
1477467228.672:   -775  71   9  839
1477467228.684:   -726  71   9  839
1477467228.685:   -676  71   9  839
1477467228.686:   -622  71   9  839
1477467228.687:   -557  71   9  839
1477467228.689:   -478  71   9  839
1477467228.690:   -389  71   9  839
1477467228.691:   -299  71   9  839
1477467228.692:   -211  71   9  839
1477467228.693:   -127  71   9  839
1477467228.694:    -44  71   9  839
1477467228.694:     29  71   9  839
1477467228.696:     84  71   9  839
1477467228.710:    122  71   9  839
1477467228.710:    159  71   9  839
1477467228.711:    212  71   9  839
1477467228.711:    280  71   9  839
1477467228.711:    347  71   9  839
1477467228.711:    400  71   9  839
1477467228.712:    445  71   9  839
1477467228.712:    500  71   9  839
1477467228.712:    573  71   9  839
1477467228.712:    653  71   9  839
1477467228.713:    719  71   9  839
1477467228.713:    756  71   9  839
1477467228.713:    761  71   9  839
1477467228.714:    752  71   9  839
1477467228.714:    751  71   9  839
1477467228.715:    777  71   9  839
1477467228.715:    821  71   9  839
1477467228.717:    853  71   9  839
1477467228.718:    851  71   9  839
1477467228.720:    826  71   9  839
1477467228.722:    810  71   9  839
1477467228.724:    828  71   9  839
1477467228.728:    865  71   9  839
1477467228.728:    887  71   9  839
1477467228.738:    874  71   9  839
1477467228.738:    839  71   9  839
1477467228.739:    810  71   9  839
1477467228.739:    803  71   9  839
1477467228.739:    814  71   9  839
1477467228.742:    829  71   9  839
1477467228.742:    836  71   9  839
1477467228.744:    835  71   9  839
1477467228.746:    827  71   9  839
1477467228.748:    817  71   9  839
1477467228.750:    812  71   9  839
1477467228.752:    817  71   9  839
1477467228.756:    832  71   9  839
1477467228.756:    844  71   9  839
1477467228.764:    844  71   9  839
1477467228.765:    823  71   9  839
1477467228.765:    790  71   9  839
1477467228.765:    764  71   9  839
1477467228.767:    763  71   9  839
1477467228.769:    784  71   9  839
1477467228.865:    803  71   9  839
1477467228.865:    800  71   9  839
1477467228.866:    776  71   9  839
1477467228.866:    758  71   9  839
1477467228.866:    763  71   9  839
1477467228.866:    785  71   9  839
1477467228.866:    803  71   9  839
1477467228.866:    807  71   9  839
1477467228.866:    807  71   9  839
1477467228.867:    809  71   9  839
1477467228.867:    804  71   9  839
1477467228.867:    785  71   9  839
1477467228.867:    765  71   9  839
1477467228.867:    763  71   9  839
1477467228.867:    781  71   9  839
1477467228.867:    792  71   9  839
1477467228.868:    778  71   9  839
1477467228.868:    749  71   9  839
1477467228.868:    739  71   9  839
1477467228.868:    757  71   9  839
1477467228.868:    781  71   9  839
1477467228.868:    785  71   9  839
1477467228.868:    769  71   9  839
1477467228.869:    757  71   9  839
1477467228.869:    763  71   9  839
1477467228.869:    778  71   9  839
1477467228.869:    781  71   9  839
1477467228.869:    768  71   9  839
1477467228.869:    753  71   9  839
1477467228.869:    748  71   9  839
1477467228.870:    751  71   9  839
1477467228.870:    748  71   9  839
1477467228.870:    736  71   9  839
1477467228.870:    722  71   9  839
1477467228.882:    716  71   9  839
1477467228.883:    719  71   9  839
1477467228.883:    719  71   9  839
1477467228.883:    711  71   9  839
1477467228.883:    696  71   9  839
1477467228.883:    680  71   9  839
1477467228.883:    667  71   9  839
1477467228.883:    654  71   9  839
1477467228.884:    634  71   9  839
1477467228.884:    611  71   9  839
1477467228.884:    594  71   9  839
1477467228.884:    593  71   9  839
1477467228.884:    603  71   9  839
1477467228.884:    615  71   9  839
1477467228.884:    620  71   9  839
1477467228.885:    615  71   9  839
1477467228.885:    602  71   9  839
1477467228.885:    586  71   9  839
1477467228.885:    564  71   9  839
1477467228.885:    540  71   9  839
1477467228.885:    517  71   9  839
1477467228.885:    499  71   9  839
1477467228.886:    484  71   9  839
1477467228.886:    467  71   9  839
1477467228.886:    445  71   9  839
1477467228.888:    424  71   9  839
1477467228.888:    420  71   9  839
1477467228.890:    438  71   9  839
1477467228.891:    468  71   9  839
1477467228.894:    491  71   9  839
1477467228.904:    497  71   9  839
1477467228.904:    487  71   9  839
1477467228.904:    477  71   9  839
1477467228.904:    477  71   9  839
1477467228.904:    482  71   9  839
1477467228.905:    482  71   9  839
1477467228.907:    471  71   9  839
1477467228.909:    452  71   9  839
1477467228.911:    432  71   9  839
1477467228.915:    415  71   9  839
1477467228.934:    396  71   9  839
1477467228.936:    374  71   9  839
1477467228.937:    353  71   9  839
1477467228.938:    339  71   9  839
1477467228.939:    339  71   9  839
1477467228.939:    350  71   9  839
1477467228.940:    360  71   9  839
1477467228.941:    359  71   9  839
1477467228.942:    350  71   9  839
1477467228.942:    348  71   9  839
1477467228.943:    364  71   9  839
1477467228.943:    386  71   9  839
1477467228.944:    391  71   9  839
1477467228.945:    370  71   9  839
1477467228.947:    341  71   9  839
1477467228.948:    330  71   9  839
1477467228.948:    338  71   9  839
1477467228.948:    342  71   9  839
1477467228.950:    330  71   9  839
1477467228.954:    311  71   9  839
1477467228.973:    311  71   9  839
1477467228.974:    339  71   9  839
1477467228.975:    379  71   9  839
1477467228.975:    410  71   9  839
1477467228.976:    430  71   9  839
1477467228.976:    442  71   9  839
1477467228.978:    448  71   9  839
1477467228.979:    442  71   9  839
1477467228.979:    423  71   9  839
1477467228.979:    398  71   9  839
1477467228.980:    372  71   9  839
1477467228.980:    347  71   9  839
1477467228.980:    322  71   9  839
1477467228.981:    301  71   9  839
1477467228.985:    288  71   9  839
1477467228.985:    282  71   9  839
1477467229.000:    282  71   9  839
1477467229.001:    291  71   9  839
1477467229.001:    317  71   9  839
1477467229.002:    353  71   9  839
1477467229.003:    378  71   9  839
1477467229.003:    381  71   9  839
1477467229.004:    374  71   9  839
1477467229.005:    375  71   9  839
1477467229.005:    384  71   9  839
1477467229.006:    380  71   9  839
1477467229.007:    346  71   9  839
1477467229.009:    294  71   9  839
1477467229.020:    248  71   9  839
1477467229.021:    220  71   9  839
1477467229.024:    204  71   9  839
1477467229.024:    193  71   9  839
1477467229.024:    193  71   9  839
1477467229.025:    210  71   9  839
1477467229.025:    240  71   9  839
1477467229.028:    263  71   9  839
1477467229.028:    271  71   9  839
1477467229.028:    264  71   9  839
1477467229.030:    247  71   9  839
1477467229.030:    220  71   9  839
1477467229.037:    180  71   9  839
1477467229.037:    131  71   9  839
1477467229.042:     85  71   9  839
1477467229.042:     46  71   9  839
1477467229.042:     12  71   9  839
1477467229.045:    -21  71   9  839
1477467229.045:    -48  71   9  839
1477467229.047:    -61  71   9  839
1477467229.049:    -63  71   9  839
1477467229.055:    -62  71   9  839
1477467229.061:    -64  71   9  839
1477467229.061:    -66  71   9  839
1477467229.061:    -56  71   9  839
1477467229.061:    -29  71   9  839
1477467229.064:      3  71   9  839
1477467229.064:     22  71   9  839
1477467229.066:     11  71   9  839
1477467229.070:    -25  71   9  839
1477467229.081:    -65  71   9  839
1477467229.082:    -90  71   9  839
1477467229.082:   -104  71   9  839
1477467229.083:   -121  71   9  839
1477467229.084:   -150  71   9  839
1477467229.084:   -173  71   9  839
1477467229.085:   -164  71   9  839
1477467229.088:   -116  71   9  839
1477467229.089:    -51  71   9  839
1477467229.091:      6  71   9  839
1477467229.092:     51  71   9  839
1477467229.093:     94  71   9  839
1477467229.094:    145  71   9  839
1477467229.096:    199  71   9  839
1477467229.097:    243  71   9  839
1477467229.098:    270  71   9  839
1477467229.113:    280  71   9  839
1477467229.113:    279  71   9  839
1477467229.113:    276  71   9  839
1477467229.113:    279  71   9  839
1477467229.114:    288  71   9  839
1477467229.121:    295  71   9  839
1477467229.131:    295  71   9  839
1477467229.132:    293  71   9  839
1477467229.133:    305  71   9  839
1477467229.133:    334  71   9  839
1477467229.134:    367  71   9  839
1477467229.134:    386  71   9  839
1477467229.135:    387  71   9  839
1477467229.136:    381  71   9  839
1477467229.136:    378  71   9  839
1477467229.137:    378  71   9  839
1477467229.138:    378  71   9  839
1477467229.139:    384  71   9  839
1477467229.140:    399  71   9  839
1477467229.151:    419  71   9  839
1477467229.152:    431  71   9  839
1477467229.152:    431  71   9  839
1477467229.153:    426  71   9  839
1477467229.154:    429  71   9  839
1477467229.155:    437  71   9  839
1477467229.156:    447  71   9  839
1477467229.157:    457  71   9  839
1477467229.157:    464  71   9  839
1477467229.174:    467  71   9  839
1477467229.176:    459  71   9  839
1477467229.176:    444  71   9  839
1477467229.177:    431  71   9  839
1477467229.178:    427  71   9  839
1477467229.180:    425  71   9  839
1477467229.180:    417  71   9  839
1477467229.181:    404  71   9  839
1477467229.182:    384  71   9  839
1477467229.182:    352  71   9  839
1477467229.183:    310  71   9  839
1477467229.184:    269  71   9  839
1477467229.195:    243  71   9  839
1477467229.195:    240  71   9  839
1477467229.195:    268  71   9  839
1477467229.196:    349  71   9  839
1477467229.196:    509  71   9  839
1477467229.196:    729  71   9  839
1477467229.196:    942  71   9  839
1477467229.197:   1071  71   9  839
1477467229.199:   1116  71   9  839
1477467229.199:   1126  71   9  839
1477467229.200:   1085  71   9  839
1477467229.202:    889  71   9  839
1477467229.204:    445  71   9  839
1477467229.205:   -218  71   9  839
1477467229.212:   -994  71   9  839
1477467229.213:  -1850  71   9  839
1477467229.213:  -2872  71   9  839
1477467229.213:  -4104  71   9  839
1477467229.213:  -5403  71   9  839
1477467229.219:  -6514  71   9  839
1477467229.219:  -7287  71   9  839
1477467229.220:  -7746  71   9  839
1477467229.222:  -7925  71   9  839
1477467229.225:  -7721  71   9  839
1477467229.226:  -6993  71   9  839
1477467229.227:  -5796  71   9  839
1477467229.230:  -4411  71   9  839
1477467229.234:  -3108  71   9  839
1477467229.235:  -1950  71   9  839
1477467229.238:   -856  71   9  839
1477467229.238:    169  71   9  839
1477467229.240:    965  71   9  839
1477467229.240:   1377  71   9  839
1477467229.248:   1435  71   9  839
1477467229.261:   1318  71   9  839
1477467229.261:   1176  71   9  839
1477467229.261:   1055  71   9  839
1477467229.262:    952  71   9  839
1477467229.262:    892  71   9  839
1477467229.262:    909  71   9  839
1477467229.262:    999  71   9  839
1477467229.263:   1117  71   9  839
1477467229.263:   1233  71   9  839
1477467229.265:   1340  71   9  839
1477467229.266:   1423  71   9  839
1477467229.267:   1439  71   9  839
1477467229.270:   1361  71   9  839
1477467229.271:   1230  71   9  839
1477467229.279:   1118  71   9  839
1477467229.279:   1064  71   9  839
1477467229.279:   1050  71   9  839
1477467229.279:   1047  71   9  839
1477467229.282:   1051  71   9  839
1477467229.282:   1077  71   9  839
1477467229.289:   1117  71   9  839
1477467229.289:   1131  71   9  839
1477467229.290:   1085  71   9  839
1477467229.292:    992  71   9  839
1477467229.293:    902  71   9  839
1477467229.295:    859  71   9  839
1477467229.298:    869  71   9  839
1477467229.299:    906  71   9  839
1477467229.303:    942  71   9  839
1477467229.303:    961  71   9  839
1477467229.304:    957  71   9  840
1477467229.306:    930  71   9  840
1477467229.319:    881  71   9  840
1477467229.320:    823  71   9  840
1477467229.320:    775  71   9  840
1477467229.320:    752  71   9  840
1477467229.320:    754  71   9  840
1477467229.320:    767  71   9  840
1477467229.320:    771  71   9  840
1477467229.322:    761  71   9  840
1477467229.324:    744  71   9  840
1477467229.326:    736  71   9  840
1477467229.330:    740  71   9  840
1477467229.331:    747  71   9  840
1477467229.339:    745  71   9  840
1477467229.339:    731  71   9  840
1477467229.339:    715  71   9  840
1477467229.340:    703  71   9  840
1477467229.340:    696  71   9  840
1477467229.347:    686  71   9  840
1477467229.348:    665  71   9  840
1477467229.348:    629  71   9  840
1477467229.348:    582  71   9  840
1477467229.349:    541  71   9  840
1477467229.352:    522  71   9  840
1477467229.353:    523  71   9  840
1477467229.360:    529  71   9  840
1477467229.360:    524  71   9  840
1477467229.361:    514  71   9  840
1477467229.361:    518  71   9  840
1477467229.363:    544  71   9  840
1477467229.366:    570  71   9  840
1477467229.367:    570  71   9  840
1477467229.371:    545  71   9  840
1477467229.388:    518  71   9  840
1477467229.389:    508  71   9  840
1477467229.389:    508  71   9  840
1477467229.389:    498  71   9  840
1477467229.390:    478  71   9  840
1477467229.390:    462  71   9  840
1477467229.390:    456  71   9  840
1477467229.390:    448  71   9  840
1477467229.391:    427  71   9  840
1477467229.391:    397  71   9  840
1477467229.392:    376  71   9  840
1477467229.393:    366  71   9  840
1477467229.395:    354  71   9  840
1477467229.399:    326  71   9  840
1477467229.399:    290  71   9  840
1477467229.401:    266  71   9  840
1477467229.402:    255  71   9  840
1477467229.404:    239  71   9  840
1477467229.407:    199  71   9  840
1477467229.409:    139  71   9  840
1477467229.412:     81  71   9  840
1477467229.413:     42  71   9  840
1477467229.429:     20  71   9  840
1477467229.430:      0  71   9  840
1477467229.430:    -29  71   9  840
1477467229.431:    -68  71   9  840
1477467229.431:   -110  71   9  840
1477467229.431:   -146  71   9  840
1477467229.432:   -174  71   9  840
1477467229.432:   -199  71   9  840
1477467229.432:   -233  71   9  840
1477467229.433:   -281  71   9  840
1477467229.435:   -334  71   9  840
1477467229.437:   -377  71   9  840
1477467229.439:   -401  71   9  840
1477467229.440:   -421  71   9  840
1477467229.449:   -460  71   9  840
1477467229.450:   -522  71   9  840
1477467229.450:   -589  71   9  840
1477467229.451:   -638  71   9  840
1477467229.451:   -667  71   9  840
1477467229.454:   -698  71   9  840
1477467229.455:   -749  71   9  840
1477467229.455:   -811  71   9  840
1477467229.458:   -863  71   9  840
1477467229.459:   -890  71   9  840
1477467229.470:   -904  71   9  840
1477467229.470:   -924  71   9  840
1477467229.470:   -957  71   9  840
1477467229.471:   -991  71   9  840
1477467229.471:  -1010  71   9  840
1477467229.471:  -1015  71   9  840
1477467229.473:  -1017  71   9  840
1477467229.475:  -1027  71   9  840
1477467229.476:  -1036  71   9  840
1477467229.480:  -1028  71   9  840
1477467229.489:   -994  71   9  840
1477467229.490:   -949  71   9  840
1477467229.490:   -916  71   9  840
1477467229.490:   -904  71   9  840
1477467229.490:   -896  71   9  840
1477467229.490:   -875  71   9  840
1477467229.495:   -841  71   9  840
1477467229.495:   -812  71   9  840
1477467229.496:   -799  71   9  840
1477467229.499:   -785  71   9  840
1477467229.509:   -743  71   9  840
1477467229.509:   -667  71   9  840
1477467229.509:   -577  71   9  840
1477467229.509:   -498  71   9  840
1477467229.509:   -429  71   9  840
1477467229.510:   -352  71   9  840
1477467229.515:   -254  71   9  840
1477467229.515:   -148  71   9  840
1477467229.517:    -60  71   9  840
1477467229.518:     -1  71   9  840
1477467229.528:     39  71   9  840
1477467229.528:     78  71   9  840
1477467229.528:    123  71   9  840
1477467229.528:    168  71   9  840
1477467229.533:    208  71   9  840
1477467229.533:    245  71   9  840
1477467229.533:    287  71   9  840
1477467229.534:    341  71   9  840
1477467229.536:    408  71   9  840
1477467229.538:    477  71   9  840
1477467229.547:    537  71   9  840
1477467229.547:    590  71   9  840
1477467229.547:    645  71   9  840
1477467229.548:    707  71   9  840
1477467229.550:    766  71   9  840
1477467229.550:    799  71   9  840
1477467229.552:    796  71   9  840
1477467229.555:    772  71   9  840
1477467229.559:    756  71   9  840
1477467229.560:    757  71   9  840
1477467229.561:    768  71   9  840
1477467229.563:    774  71   9  840
1477467229.564:    770  71   9  840
1477467229.566:    761  71   9  840
1477467229.571:    748  71   9  840
1477467229.571:    735  71   9  840
1477467229.572:    733  71   9  840
1477467229.574:    757  71   9  840
1477467229.575:    805  71   9  840
1477467229.576:    854  71   9  840
1477467229.579:    877  71   9  840
1477467229.581:    872  71   9  840
1477467229.586:    861  71   9  840
1477467229.586:    866  71   9  840
1477467229.603:    883  71   9  840
1477467229.603:    887  71   9  840
1477467229.603:    865  71   9  840
1477467229.604:    827  71   9  840
1477467229.604:    800  71   9  840
1477467229.604:    794  71   9  840
1477467229.605:    797  71   9  840
1477467229.667:    789  71   9  840
1477467229.668:    766  71   9  840
1477467229.668:    741  71   9  840
1477467229.668:    729  71   9  840
1477467229.668:    728  71   9  840
1477467229.668:    726  71   9  840
1477467229.668:    715  71   9  840
1477467229.669:    705  71   9  840
1477467229.669:    712  71   9  840
1477467229.669:    742  71   9  840
1477467229.669:    780  71   9  840
1477467229.669:    807  71   9  840
1477467229.669:    816  71   9  840
1477467229.669:    813  71   9  840
1477467229.670:    804  71   9  840
1477467229.670:    792  71   9  840
1477467229.670:    779  71   9  840
1477467229.670:    771  71   9  840
1477467229.670:    772  71   9  840
1477467229.670:    780  71   9  840
1477467229.670:    785  71   9  840
1477467229.670:    781  71   9  840
1477467229.671:    771  71   9  840
1477467229.671:    762  71   9  840
1477467229.671:    761  71   9  840
1477467229.671:    769  71   9  840
1477467229.671:    782  71   9  840
1477467229.671:    793  71   9  840
1477467229.671:    795  71   9  840
1477467229.672:    791  71   9  840
1477467229.672:    790  71   9  840
1477467229.672:    800  71   9  840
1477467229.672:    812  71   9  840
1477467229.672:    807  71   9  840
1477467229.672:    775  71   9  840
1477467229.672:    735  71   9  840
1477467229.673:    711  71   9  840
1477467229.673:    711  71   9  840
1477467229.676:    714  71   9  840
1477467229.679:    694  71   9  840
1477467229.681:    651  71   9  840
1477467229.682:    613  71   9  840
1477467229.685:    602  71   9  840
1477467229.694:    610  71   9  840
1477467229.694:    611  71   9  840
1477467229.694:    588  71   9  840
1477467229.694:    550  71   9  840
1477467229.696:    524  71   9  840
1477467229.696:    529  71   9  840
1477467229.699:    561  71   9  840
1477467229.699:    595  71   9  840
1477467229.701:    612  71   9  840
1477467229.703:    606  71   9  840
1477467229.705:    588  71   9  840
1477467229.710:    569  71   9  840
1477467229.710:    556  71   9  840
1477467229.711:    546  71   9  840
1477467229.741:    534  71   9  840
1477467229.741:    510  71   9  840
1477467229.741:    470  71   9  840
1477467229.742:    422  71   9  840
1477467229.742:    386  71   9  840
1477467229.742:    381  71   9  840
1477467229.742:    407  71   9  840
1477467229.742:    439  71   9  840
1477467229.743:    451  71   9  840
1477467229.743:    443  71   9  840
1477467229.743:    439  71   9  840
1477467229.746:    461  71   9  840
1477467229.748:    503  71   9  840
1477467229.749:    540  71   9  840
1477467229.749:    548  71   9  840
1477467229.750:    523  71   9  840
1477467229.750:    481  71   9  840
1477467229.750:    441  71   9  840
1477467229.752:    421  71   9  840
1477467229.752:    419  71   9  840
1477467229.754:    418  71   9  840
1477467229.754:    400  71   9  840
1477467229.756:    364  71   9  840
1477467229.758:    331  71   9  840
1477467229.768:    322  71   9  840
1477467229.769:    341  71   9  840
1477467229.769:    371  71   9  840
1477467229.771:    393  71   9  840
1477467229.772:    404  71   9  840
1477467229.772:    411  71   9  840
1477467229.773:    418  71   9  840
1477467229.774:    419  71   9  840
1477467229.787:    414  71   9  840
1477467229.787:    405  71   9  840
1477467229.788:    397  71   9  840
1477467229.788:    386  71   9  840
1477467229.789:    363  71   9  840
1477467229.789:    333  71   9  840
1477467229.790:    309  71   9  840
1477467229.792:    299  71   9  840
1477467229.793:    299  71   9  840
1477467229.795:    297  71   9  840
1477467229.805:    293  71   9  840
1477467229.807:    300  71   9  840
1477467229.808:    319  71   9  840
1477467229.809:    337  71   9  840
1477467229.809:    332  71   9  840
1477467229.810:    307  71   9  840
1477467229.810:    286  71   9  840
1477467229.815:    289  71   9  840
1477467229.823:    313  71   9  840
1477467229.844:    327  71   9  840
1477467229.844:    310  71   9  840
1477467229.850:    270  71   9  840
1477467229.861:    239  71   9  840
1477467229.862:    243  71   9  840
1477467229.862:    277  71   9  840
1477467229.862:    306  71   9  840
1477467229.862:    296  71   9  840
1477467229.862:    243  71   9  840
1477467229.862:    180  71   9  840
1477467229.862:    148  71   9  840
1477467229.863:    164  71   9  840
1477467229.863:    203  71   9  840
1477467229.863:    225  71   9  840
1477467229.863:    217  71   9  840
1477467229.863:    200  71   9  840
1477467229.863:    201  71   9  840
1477467229.864:    227  71   9  840
1477467229.864:    260  71   9  840
1477467229.864:    276  71   9  840
1477467229.864:    270  71   9  840
1477467229.864:    247  71   9  840
1477467229.864:    222  71   9  840
1477467229.865:    206  71   9  840
1477467229.865:    204  71   9  840
1477467229.865:    205  71   9  840
1477467229.867:    189  71   9  840
1477467229.868:    148  71   9  840
1477467229.870:     91  71   9  840
1477467229.872:     37  71   9  840
1477467229.873:     -2  71   9  840
1477467229.874:    -35  71   9  840
1477467229.875:    -69  71   9  840
1477467229.880:   -101  71   9  840
1477467229.880:   -123  71   9  840
1477467229.881:   -136  71   9  840
1477467229.882:   -147  71   9  840
1477467229.894:   -159  71   9  840
1477467229.894:   -159  71   9  840
1477467229.895:   -141  71   9  840
1477467229.895:   -113  71   9  840
1477467229.895:    -94  71   9  840
1477467229.895:    -88  71   9  840
1477467229.896:    -88  71   9  840
1477467229.902:    -85  71   9  840
1477467229.902:    -82  71   9  840
1477467229.903:    -88  71   9  840
1477467229.905:   -101  71   9  840
1477467229.908:   -112  71   9  840
1477467229.909:   -113  71   9  840
1477467229.910:   -105  71   9  840
1477467229.917:    -93  71   9  840
1477467229.917:    -78  71   9  840
1477467229.934:    -53  71   9  840
1477467229.934:    -16  71   9  840
1477467229.935:     33  71   9  840
1477467229.935:     82  71   9  840
1477467229.936:    121  71   9  840
1477467229.936:    150  71   9  840
1477467229.936:    174  71   9  840
1477467229.939:    200  71   9  840
1477467229.940:    223  71   9  840
1477467229.940:    232  71   9  840
1477467229.941:    223  71   9  840
1477467229.941:    206  71   9  840
1477467229.945:    196  71   9  840
1477467229.945:    194  71   9  840
1477467229.955:    191  71   9  840
1477467229.955:    183  71   9  840
1477467229.956:    181  71   9  840
1477467229.957:    192  71   9  840
1477467229.958:    216  71   9  840
1477467229.958:    242  71   9  840
1477467229.959:    262  71   9  840
1477467229.959:    280  71   9  840
1477467229.964:    298  71   9  840
1477467229.965:    311  71   9  840
1477467229.972:    309  71   9  840
1477467229.972:    290  71   9  840
1477467229.973:    261  71   9  840
1477467229.973:    235  71   9  840
1477467229.973:    220  71   9  840
1477467229.974:    216  71   9  840
1477467229.975:    217  71   9  840
1477467229.981:    219  71   9  840
1477467229.989:    227  71   9  840
1477467229.990:    251  71   9  840
1477467229.990:    293  71   9  840
1477467229.990:    329  71   9  840
1477467229.991:    333  71   9  840
1477467229.993:    305  71   9  840
1477467229.993:    276  71   9  840
1477467229.996:    270  71   9  840
1477467230.006:    274  71   9  840
1477467230.006:    259  71   9  840
1477467230.006:    217  71   9  840
1477467230.006:    178  71   9  840
1477467230.007:    164  71   9  840
1477467230.007:    163  71   9  840
1477467230.009:    144  71   9  840
1477467230.010:    100  71   9  840
1477467230.014:     54  71   9  840
1477467230.014:     42  71   9  840
1477467230.025:     85  71   9  840
1477467230.025:    192  71   9  840
1477467230.025:    357  71   9  840
1477467230.025:    541  71   9  840
1477467230.025:    686  71   9  840
1477467230.031:    753  71   9  840
1477467230.031:    772  71   9  840
1477467230.031:    776  71   9  840
1477467230.032:    712  71   9  840
1477467230.037:    462  71   9  840
1477467230.046:    -33  71   9  840
1477467230.046:   -700  71   9  840
1477467230.046:  -1444  71   9  840
1477467230.046:  -2280  71   9  840
1477467230.046:  -3312  71   9  840
1477467230.047:  -4537  71   9  840
1477467230.047:  -5754  71   9  840
1477467230.049:  -6711  71   9  840
1477467230.051:  -7326  71   9  840
1477467230.055:  -7672  71   9  840
1477467230.055:  -7766  71   9  840
1477467230.057:  -7464  71   9  840
1477467230.066:  -6626  71   9  840
1477467230.066:  -5358  71   9  840
1477467230.066:  -3983  71   9  840
1477467230.066:  -2765  71   9  840
1477467230.068:  -1722  71   9  840
1477467230.069:   -737  71   9  840
1477467230.071:    190  71   9  840
1477467230.073:    889  71   9  840
1477467230.074:   1202  71   9  840
1477467230.077:   1172  71   9  840
1477467230.079:    997  71   9  840
1477467230.083:    851  71   9  840
1477467230.089:    774  71   9  840
1477467230.089:    730  71   9  840
1477467230.089:    705  71   9  840
1477467230.089:    728  71   9  840
1477467230.091:    813  71   9  840
1477467230.093:    929  71   9  840
1477467230.096:   1028  71   9  840
1477467230.096:   1085  71   9  840
1477467230.099:   1109  71   9  840
1477467230.101:   1098  71   9  840
1477467230.111:   1042  71   9  840
1477467230.111:    943  71   9  840
1477467230.111:    833  71   9  840
1477467230.111:    760  71   9  840
1477467230.111:    751  71   9  840
1477467230.112:    795  71   9  840
1477467230.115:    852  71   9  840
1477467230.119:    889  71   9  840
1477467230.121:    892  71   9  840
1477467230.122:    862  71   9  840
1477467230.131:    802  71   9  840
1477467230.131:    718  71   9  840
1477467230.131:    634  71   9  840
1477467230.132:    584  71   9  840
1477467230.136:    589  71   9  840
1477467230.136:    637  71   9  840
1477467230.136:    689  71   9  840
1477467230.139:    710  71   9  840
1477467230.139:    694  71   9  840
1477467230.140:    662  71   9  840
1477467230.177:    637  71   9  842
1477467230.180:    620  71   9  842
1477467230.180:    599  71   9  842
1477467230.181:    569  71   9  842
1477467230.183:    544  71   9  842
1477467230.184:    538  71   9  842
1477467230.196:    546  71   9  842
1477467230.197:    558  71   9  842
1477467230.198:    567  71   9  842
1477467230.198:    573  71   9  842
1477467230.199:    572  71   9  842
1477467230.200:    555  71   9  842
1477467230.200:    526  71   9  842
1477467230.201:    502  71   9  842
1477467230.202:    500  71   9  842
1477467230.202:    512  71   9  842
1477467230.213:    513  71   9  842
1477467230.213:    492  71   9  842
1477467230.215:    463  71   9  842
1477467230.215:    441  71   9  842
1477467230.215:    428  71   9  842
1477467230.216:    418  71   9  842
1477467230.216:    404  71   9  842
1477467230.217:    383  71   9  842
1477467230.218:    348  71   9  842
1477467230.219:    297  71   9  842
1477467230.222:    251  71   9  842
1477467230.223:    238  71   9  842
1477467230.224:    263  71   9  842
1477467230.224:    294  71   9  842
1477467230.225:    295  71   9  842
1477467230.225:    269  71   9  842
1477467230.226:    254  71   9  842
1477467230.226:    268  71   9  842
1477467230.229:    290  71   9  842
1477467230.230:    284  71   9  842
1477467230.232:    252  71   9  842
1477467230.238:    223  71   9  842
1477467230.254:    217  71   9  842
1477467230.255:    214  71   9  842
1477467230.256:    188  71   9  842
1477467230.256:    139  71   9  842
1477467230.256:    100  71   9  842
1477467230.258:     91  71   9  842
1477467230.260:     95  71   9  842
1477467230.260:     85  71   9  842
1477467230.261:     52  71   9  842
1477467230.262:     14  71   9  842
1477467230.262:    -14  71   9  842
1477467230.263:    -35  71   9  842
1477467230.274:    -59  71   9  842
1477467230.274:    -86  71   9  842
1477467230.274:   -113  71   9  842
1477467230.274:   -147  71   9  842
1477467230.274:   -204  71   9  842
1477467230.275:   -282  71   9  842
1477467230.275:   -351  71   9  842
1477467230.275:   -378  71   9  842
1477467230.275:   -365  71   9  842
1477467230.275:   -353  71   9  842
1477467230.275:   -375  71   9  842
1477467230.275:   -423  71   9  842
1477467230.276:   -463  71   9  842
1477467230.276:   -478  71   9  842
1477467230.276:   -488  71   9  842
1477467230.276:   -523  71   9  842
1477467230.276:   -589  71   9  842
1477467230.276:   -669  71   9  842
1477467230.276:   -744  71   9  842
1477467230.276:   -809  71   9  842
1477467230.280:   -867  71   9  842
1477467230.285:   -915  71   9  842
1477467230.295:   -953  71   9  842
1477467230.295:   -987  71   9  842
1477467230.295:  -1031  71   9  842
1477467230.296:  -1084  71   9  842
1477467230.296:  -1128  71   9  842
1477467230.296:  -1152  71   9  842
1477467230.298:  -1161  71   9  842
1477467230.298:  -1172  71   9  842
1477467230.302:  -1190  71   9  842
1477467230.302:  -1207  71   9  842
1477467230.303:  -1214  71   9  842
1477467230.308:  -1219  71   9  842
1477467230.316:  -1233  71   9  842
1477467230.316:  -1257  71   9  842
1477467230.316:  -1278  71   9  842
1477467230.317:  -1283  71   9  842
1477467230.317:  -1270  71   9  842
1477467230.317:  -1254  71   9  842
1477467230.319:  -1246  71   9  842
1477467230.322:  -1239  71   9  842
1477467230.323:  -1214  71   9  842
1477467230.324:  -1155  71   9  842
1477467230.329:  -1073  71   9  842
1477467230.329:  -1003  71   9  842
1477467230.330:   -971  71   9  842
1477467230.332:   -962  71   9  842
1477467230.334:   -934  71   9  842
1477467230.338:   -861  71   9  842
1477467230.339:   -763  71   9  842
1477467230.340:   -684  71   9  842
1477467230.342:   -644  71   9  842
1477467230.343:   -623  71   9  842
1477467230.358:   -583  71   9  842
1477467230.359:   -510  71   9  842
1477467230.359:   -417  71   9  842
1477467230.360:   -324  71   9  842
1477467230.360:   -235  71   9  842
1477467230.361:   -154  71   9  842
1477467230.361:    -88  71   9  842
1477467230.363:    -38  71   9  842
1477467230.363:      9  71   9  842
1477467230.364:     70  71   9  842
1477467230.365:    143  71   9  842
1477467230.366:    200  71   9  842
1477467230.370:    220  71   9  842
1477467230.371:    211  71   9  842
1477467230.372:    203  71   9  842
1477467230.375:    221  71   9  842
1477467230.376:    264  71   9  842
1477467230.379:    312  71   9  842
1477467230.380:    351  71   9  842
1477467230.384:    374  71   9  842
1477467230.404:    385  71   9  842
1477467230.404:    395  71   9  842
1477467230.404:    415  71   9  842
1477467230.404:    448  71   9  842
1477467230.404:    484  71   9  842
1477467230.404:    509  71   9  842
1477467230.405:    521  71   9  842
1477467230.405:    530  71   9  842
1477467230.405:    543  71   9  842
1477467230.405:    556  71   9  842
1477467230.407:    562  71   9  842
1477467230.408:    561  71   9  842
1477467230.409:    559  71   9  842
1477467230.410:    560  71   9  842
1477467230.413:    558  71   9  842
1477467230.416:    543  71   9  842
1477467230.418:    520  71   9  842
1477467230.419:    502  71   9  842
1477467230.420:    494  71   9  842
1477467230.421:    492  71   9  842
1477467230.426:    488  71   9  842
1477467230.427:    482  71   9  842
1477467230.428:    478  71   9  842
1477467230.428:    475  71   9  842
1477467230.446:    472  71   9  842
1477467230.512:    471  71   9  842
1477467230.513:    477  71   9  842
1477467230.513:    494  71   9  842
1477467230.526:    512  71   9  842
1477467230.526:    516  71   9  842
1477467230.526:    503  71   9  842
1477467230.526:    488  71   9  842
1477467230.526:    492  71   9  842
1477467230.526:    519  71   9  842
1477467230.527:    550  71   9  842
1477467230.527:    558  71   9  842
1477467230.527:    536  71   9  842
1477467230.527:    501  71   9  842
1477467230.528:    483  71   9  842
1477467230.528:    496  71   9  842
1477467230.529:    519  71   9  842
1477467230.529:    520  71   9  842
1477467230.529:    483  71   9  842
1477467230.530:    427  71   9  842
1477467230.530:    392  71   9  842
1477467230.530:    395  71   9  842
1477467230.531:    415  71   9  842
1477467230.531:    418  71   9  842
1477467230.532:    399  71   9  842
1477467230.532:    383  71   9  842
1477467230.532:    393  71   9  842
1477467230.533:    422  71   9  842
1477467230.533:    437  71   9  842
1477467230.533:    425  71   9  842
1477467230.534:    406  71   9  842
1477467230.534:    407  71   9  842
1477467230.546:    429  71   9  842
1477467230.546:    446  71   9  842
1477467230.549:    442  71   9  842
1477467230.550:    429  71   9  842
1477467230.550:    429  71   9  842
1477467230.550:    447  71   9  842
1477467230.550:    458  71   9  842
1477467230.551:    444  71   9  842
1477467230.551:    405  71   9  842
1477467230.554:    364  71   9  842
1477467230.554:    341  71   9  842
1477467230.554:    335  71   9  842
1477467230.555:    331  71   9  842
1477467230.555:    313  71   9  842
1477467230.565:    279  71   9  842
1477467230.565:    246  71   9  842
1477467230.566:    234  71   9  842
1477467230.566:    249  71   9  842
1477467230.566:    268  71   9  842
1477467230.566:    267  71   9  842
1477467230.566:    249  71   9  842
1477467230.566:    241  71   9  842
1477467230.566:    262  71   9  842
1477467230.566:    295  71   9  842
1477467230.567:    305  71   9  842
1477467230.567:    277  71   9  842
1477467230.567:    234  71   9  842
1477467230.567:    213  71   9  842
1477467230.567:    221  71   9  842
1477467230.567:    231  71   9  842
1477467230.568:    216  71   9  842
1477467230.568:    185  71   9  842
1477467230.568:    169  71   9  842
1477467230.568:    188  71   9  842
1477467230.568:    226  71   9  842
1477467230.568:    250  71   9  842
1477467230.568:    243  71   9  842
1477467230.569:    218  71   9  842
1477467230.570:    197  71   9  842
1477467230.573:    189  71   9  842
1477467230.574:    188  71   9  842
1477467230.575:    188  71   9  842
1477467230.576:    192  71   9  842
1477467230.583:    201  71   9  842
1477467230.583:    205  71   9  842
1477467230.585:    192  71   9  842
1477467230.588:    170  71   9  842
1477467230.588:    166  71   9  842
1477467230.589:    197  71   9  842
1477467230.591:    239  71   9  842
1477467230.597:    252  71   9  842
1477467230.597:    222  71   9  842
1477467230.608:    182  71   9  842
1477467230.608:    168  71   9  842
1477467230.608:    186  71   9  842
1477467230.608:    203  71   9  842
1477467230.608:    192  71   9  842
1477467230.608:    163  71   9  842
1477467230.609:    144  71   9  842
1477467230.611:    144  71   9  842
1477467230.615:    150  71   9  842
1477467230.615:    153  71   9  842
1477467230.616:    163  71   9  842
1477467230.619:    189  71   9  842
1477467230.626:    221  71   9  842
1477467230.626:    238  71   9  842
1477467230.626:    233  71   9  842
1477467230.629:    223  71   9  842
1477467230.629:    227  71   9  842
1477467230.632:    236  71   9  842
1477467230.633:    231  71   9  842
1477467230.637:    205  71   9  842
1477467230.644:    174  71   9  842
1477467230.645:    157  71   9  842
1477467230.645:    157  71   9  842
1477467230.645:    160  71   9  842
1477467230.645:    159  71   9  842
1477467230.646:    161  71   9  842
1477467230.660:    175  71   9  842
1477467230.660:    199  71   9  842
1477467230.663:    225  71   9  842
1477467230.663:    241  71   9  842
1477467230.663:    241  71   9  842
1477467230.664:    228  71   9  842
1477467230.664:    214  71   9  842
1477467230.664:    206  71   9  842
1477467230.664:    198  71   9  842
1477467230.665:    177  71   9  842
1477467230.670:    135  71   9  842
1477467230.670:     89  71   9  842
1477467230.672:     64  71   9  842
1477467230.674:     67  71   9  842
1477467230.678:     82  71   9  842
1477467230.679:     94  71   9  842
1477467230.680:    103  71   9  842
1477467230.682:    123  71   9  842
1477467230.683:    155  71   9  842
1477467230.685:    177  71   9  842
1477467230.688:    174  71   9  842
1477467230.693:    151  71   9  842
1477467230.708:    123  71   9  842
1477467230.708:     96  71   9  842
1477467230.709:     59  71   9  842
1477467230.709:      5  71   9  842
1477467230.709:    -60  71   9  842
1477467230.709:   -123  71   9  842
1477467230.709:   -180  71   9  842
1477467230.709:   -230  71   9  842
1477467230.710:   -269  71   9  842
1477467230.710:   -286  71   9  842
1477467230.710:   -280  71   9  842
1477467230.716:   -260  71   9  842
1477467230.717:   -233  71   9  842
1477467230.720:   -203  71   9  842
1477467230.730:   -171  71   9  842
1477467230.731:   -147  71   9  842
1477467230.731:   -139  71   9  842
1477467230.731:   -141  71   9  842
1477467230.731:   -141  71   9  842
1477467230.731:   -135  71   9  842
1477467230.734:   -136  71   9  842
1477467230.734:   -158  71   9  842
1477467230.735:   -184  71   9  842
1477467230.737:   -184  71   9  842
1477467230.738:   -141  71   9  842
1477467230.741:    -71  71   9  842
1477467230.750:    -12  71   9  842
1477467230.750:     15  71   9  842
1477467230.750:     20  71   9  842
1477467230.750:     30  71   9  842
1477467230.751:     54  71   9  842
1477467230.752:     83  71   9  842
1477467230.755:    107  71   9  842
1477467230.757:    128  71   9  842
1477467230.763:    158  71   9  842
1477467230.763:    198  71   9  842
1477467230.771:    236  71   9  842
1477467230.771:    263  71   9  842
1477467230.771:    281  71   9  842
1477467230.771:    303  71   9  842
1477467230.771:    334  71   9  842
1477467230.772:    361  71   9  842
1477467230.775:    371  71   9  842
1477467230.775:    364  71   9  842
1477467230.780:    356  71   9  842
1477467230.780:    359  71   9  842
1477467230.790:    366  71   9  842
1477467230.790:    363  71   9  842
1477467230.790:    348  71   9  842
1477467230.791:    337  71   9  842
1477467230.791:    338  71   9  842
1477467230.792:    345  71   9  842
1477467230.793:    341  71   9  842
1477467230.796:    322  71   9  842
1477467230.798:    303  71   9  842
1477467230.803:    301  71   9  842
1477467230.811:    316  71   9  842
1477467230.811:    338  71   9  842
1477467230.812:    353  71   9  842
1477467230.812:    350  71   9  842
1477467230.812:    325  71   9  842
1477467230.812:    280  71   9  842
1477467230.813:    233  71   9  842
1477467230.816:    210  71   9  842
1477467230.817:    217  71   9  842
1477467230.822:    228  71   9  842
1477467230.831:    217  71   9  842
1477467230.831:    185  71   9  842
1477467230.832:    163  71   9  842
1477467230.832:    168  71   9  842
1477467230.832:    185  71   9  842
1477467230.832:    185  71   9  842
1477467230.837:    170  71   9  842
1477467230.838:    161  71   9  842
1477467230.838:    162  71   9  842
1477467230.840:    162  71   9  842
1477467230.841:    181  71   9  842
1477467230.844:    280  71   9  842
1477467230.845:    492  71   9  842
1477467230.849:    750  71   9  842
1477467230.850:    931  71   9  842
1477467230.851:    976  71   9  842
1477467230.854:    958  71   9  842
1477467230.858:    956  71   9  842
1477467230.870:    910  71   9  842
1477467230.871:    668  71   9  842
1477467230.872:    157  71   9  842
1477467230.872:   -540  71   9  842
1477467230.873:  -1325  71   9  842
1477467230.873:  -2241  71   9  842
1477467230.873:  -3390  71   9  842
1477467230.873:  -4720  71   9  842
1477467230.874:  -5974  71   9  842
1477467230.874:  -6915  71   9  842
1477467230.876:  -7533  71   9  842
1477467230.882:  -7951  71   9  842
1477467230.887:  -8149  71   9  842
1477467230.887:  -7895  71   9  842
1477467230.888:  -7019  71   9  842
1477467230.888:  -5678  71   9  842
1477467230.891:  -4263  71   9  842
1477467230.891:  -3050  71   9  842
1477467230.893:  -2019  71   9  842
1477467230.896:  -1027  71   9  842
1477467230.904:    -87  71   9  842
1477467230.905:    608  71   9  842
1477467230.906:    907  71   9  842
1477467230.907:    869  71   9  842
1477467230.907:    691  71   9  842
1477467230.908:    527  71   9  842
1477467230.909:    422  71   9  842
1477467230.915:    373  71   9  842
1477467230.923:    400  71   9  842
1477467230.923:    519  71   9  842
1477467230.925:    697  71   9  842
1477467230.926:    874  71   9  842
1477467230.927:   1016  71   9  842
1477467230.928:   1123  71   9  842
1477467230.939:   1198  71   9  842
1477467230.939:   1210  71   9  842
1477467230.939:   1136  71   9  842
1477467230.939:   1006  71   9  842
1477467230.940:    885  71   9  842
1477467230.940:    826  71   9  842
1477467230.940:    834  71   9  842
1477467230.940:    880  71   9  842
1477467230.941:    933  71   9  842
1477467230.941:    976  71   9  842
1477467230.946:    999  71   9  842
1477467230.946:    990  71   9  842
1477467230.947:    939  71   9  842
1477467230.948:    858  71   9  842
1477467230.954:    783  71   9  842
1477467230.955:    748  71   9  842
1477467230.971:    760  71   9  842
1477467230.972:    799  71   9  842
1477467230.972:    839  71   9  842
1477467230.973:    863  71   9  842
1477467230.974:    868  71   9  842
1477467230.974:    855  71   9  842
1477467230.975:    832  71   9  842
1477467230.975:    804  71   9  842
1477467230.976:    783  71   9  842
1477467230.977:    776  71   9  842
1477467230.992:    780  71   9  840
1477467230.992:    783  71   9  840
1477467230.993:    776  71   9  840
1477467230.994:    758  71   9  840
1477467230.997:    736  71   9  840
1477467230.998:    713  71   9  840
1477467230.998:    686  71   9  840
1477467230.999:    656  71   9  840
1477467231.010:    625  71   9  840
1477467231.011:    598  71   9  840
1477467231.012:    574  71   9  840
1477467231.013:    550  71   9  840
1477467231.014:    531  71   9  840
1477467231.015:    522  71   9  840
1477467231.016:    520  71   9  840
1477467231.017:    513  71   9  840
1477467231.018:    497  71   9  840
1477467231.019:    483  71   9  840
1477467231.030:    487  71   9  840
1477467231.031:    512  71   9  840
1477467231.032:    535  71   9  840
1477467231.033:    533  71   9  840
1477467231.033:    509  71   9  840
1477467231.034:    486  71   9  840
1477467231.035:    481  71   9  840
1477467231.035:    482  71   9  840
1477467231.037:    464  71   9  840
1477467231.038:    417  71   9  840
1477467231.039:    355  71   9  840
1477467231.040:    304  71   9  840
1477467231.040:    278  71   9  840
1477467231.041:    275  71   9  840
1477467231.041:    279  71   9  840
1477467231.042:    274  71   9  840
1477467231.054:    254  71   9  840
1477467231.055:    228  71   9  840
1477467231.056:    217  71   9  840
1477467231.057:    228  71   9  840
1477467231.058:    245  71   9  840
1477467231.058:    234  71   9  840
1477467231.059:    186  71   9  840
1477467231.059:    127  71   9  840
1477467231.060:     97  71   9  840
1477467231.061:    107  71   9  840
1477467231.073:    125  71   9  840
1477467231.074:    113  71   9  840
1477467231.075:     65  71   9  840
1477467231.075:     10  71   9  840
1477467231.076:    -24  71   9  840
1477467231.077:    -35  71   9  840
1477467231.077:    -36  71   9  840
1477467231.078:    -46  71   9  840
1477467231.083:    -73  71   9  840
1477467231.084:   -113  71   9  840
1477467231.092:   -159  71   9  840
1477467231.092:   -195  71   9  840
1477467231.093:   -216  71   9  840
1477467231.094:   -233  71   9  840
1477467231.094:   -268  71   9  840
1477467231.096:   -326  71   9  840
1477467231.096:   -388  71   9  840
1477467231.097:   -430  71   9  840
1477467231.098:   -451  71   9  840
1477467231.122:   -477  71   9  840
1477467231.129:   -527  71   9  840
1477467231.130:   -593  71   9  840
1477467231.130:   -652  71   9  840
1477467231.131:   -697  71   9  840
1477467231.132:   -739  71   9  840
1477467231.132:   -789  71   9  840
1477467231.133:   -842  71   9  840
1477467231.134:   -882  71   9  840
1477467231.134:   -904  71   9  840
1477467231.135:   -919  71   9  840
1477467231.135:   -944  71   9  840
1477467231.137:   -988  71   9  840
1477467231.148:  -1045  71   9  840
1477467231.148:  -1106  71   9  840
1477467231.148:  -1154  71   9  840
1477467231.148:  -1184  71   9  840
1477467231.149:  -1200  71   9  840
1477467231.149:  -1210  71   9  840
1477467231.149:  -1217  71   9  840
1477467231.149:  -1213  71   9  840
1477467231.149:  -1185  71   9  840
1477467231.149:  -1138  71   9  840
1477467231.149:  -1097  71   9  840
1477467231.149:  -1081  71   9  840
1477467231.150:  -1079  71   9  840
1477467231.162:  -1064  71   9  840
1477467231.162:  -1018  71   9  840
1477467231.162:   -957  71   9  840
1477467231.163:   -910  71   9  840
1477467231.163:   -880  71   9  840
1477467231.164:   -847  71   9  840
1477467231.164:   -786  71   9  840
1477467231.164:   -701  71   9  840
1477467231.165:   -622  71   9  840
1477467231.167:   -565  71   9  840
1477467231.170:   -517  71   9  840
1477467231.171:   -456  71   9  840
1477467231.175:   -377  71   9  840
1477467231.189:   -299  71   9  840
1477467231.189:   -239  71   9  840
1477467231.190:   -187  71   9  840
1477467231.190:   -120  71   9  840
1477467231.190:    -33  71   9  840
1477467231.190:     52  71   9  840
1477467231.190:    111  71   9  840
1477467231.190:    145  71   9  840
1477467231.194:    181  71   9  840
1477467231.195:    234  71   9  840
1477467231.196:    293  71   9  840
1477467231.198:    333  71   9  840
1477467231.199:    351  71   9  840
1477467231.204:    373  71   9  840
1477467231.216:    424  71   9  840
1477467231.217:    497  71   9  840
1477467231.217:    557  71   9  840
1477467231.217:    577  71   9  840
1477467231.218:    572  71   9  840
1477467231.218:    580  71   9  840
1477467231.218:    617  71   9  840
1477467231.218:    655  71   9  840
1477467231.218:    653  71   9  840
1477467231.221:    608  71   9  840
1477467231.222:    553  71   9  840
1477467231.224:    530  71   9  840
1477467231.225:    540  71   9  840
1477467231.230:    555  71   9  840
1477467231.245:    550  71   9  840
1477467231.245:    532  71   9  840
1477467231.246:    522  71   9  840
1477467231.246:    533  71   9  840
1477467231.246:    559  71   9  840
1477467231.246:    583  71   9  840
1477467231.246:    601  71   9  840
1477467231.246:    614  71   9  840
1477467231.247:    617  71   9  840
1477467231.250:    604  71   9  840
1477467231.258:    575  71   9  840
1477467231.259:    545  71   9  840
1477467231.259:    531  71   9  840
1477467231.260:    534  71   9  840
1477467231.261:    540  71   9  840
1477467231.266:    534  71   9  840
1477467231.266:    517  71   9  840
1477467231.266:    505  71   9  840
1477467231.267:    509  71   9  840
1477467231.267:    527  71   9  840
1477467231.271:    544  71   9  840
1477467231.271:    547  71   9  840
1477467231.273:    539  71   9  840
1477467231.275:    536  71   9  840
1477467231.290:    549  71   9  840
1477467231.290:    580  71   9  840
1477467231.291:    615  71   9  840
1477467231.291:    642  71   9  840
1477467231.350:    654  71   9  840
1477467231.351:    652  71   9  840
1477467231.351:    643  71   9  840
1477467231.351:    628  71   9  840
1477467231.351:    604  71   9  840
1477467231.351:    572  71   9  840
1477467231.352:    541  71   9  840
1477467231.352:    524  71   9  840
1477467231.352:    523  71   9  840
1477467231.352:    527  71   9  840
1477467231.353:    525  71   9  840
1477467231.353:    518  71   9  840
1477467231.353:    525  71   9  840
1477467231.353:    556  71   9  840
1477467231.353:    597  71   9  840
1477467231.354:    619  71   9  840
1477467231.354:    613  71   9  840
1477467231.354:    593  71   9  840
1477467231.354:    585  71   9  840
1477467231.354:    597  71   9  840
1477467231.355:    608  71   9  840
1477467231.355:    595  71   9  840
1477467231.355:    553  71   9  840
1477467231.355:    503  71   9  840
1477467231.355:    467  71   9  840
1477467231.356:    450  71   9  840
1477467231.356:    445  71   9  840
1477467231.356:    437  71   9  840
1477467231.356:    419  71   9  840
1477467231.356:    397  71   9  840
1477467231.356:    381  71   9  840
1477467231.357:    380  71   9  840
1477467231.357:    391  71   9  840
1477467231.358:    401  71   9  840
1477467231.358:    398  71   9  840
1477467231.358:    384  71   9  840
1477467231.358:    374  71   9  840
1477467231.358:    375  71   9  840
1477467231.363:    375  71   9  840
1477467231.363:    357  71   9  840
1477467231.364:    319  71   9  840
1477467231.365:    283  71   9  840
1477467231.367:    272  71   9  840
1477467231.369:    284  71   9  840
1477467231.380:    297  71   9  840
1477467231.380:    291  71   9  840
1477467231.380:    271  71   9  840
1477467231.380:    261  71   9  840
1477467231.381:    279  71   9  840
1477467231.381:    317  71   9  840
1477467231.383:    343  71   9  840
1477467231.387:    336  71   9  840
1477467231.392:    303  71   9  840
1477467231.393:    275  71   9  840
1477467231.394:    275  71   9  840
1477467231.395:    298  71   9  840
1477467231.397:    318  71   9  840
1477467231.398:    311  71   9  840
1477467231.399:    284  71   9  840
1477467231.403:    262  71   9  840
1477467231.427:    257  71   9  840
1477467231.429:    262  71   9  840
1477467231.430:    253  71   9  840
1477467231.430:    228  71   9  840
1477467231.431:    203  71   9  840
1477467231.431:    196  71   9  840
1477467231.431:    203  71   9  840
1477467231.434:    205  71   9  840
1477467231.434:    197  71   9  840
1477467231.435:    195  71   9  840
1477467231.435:    216  71   9  840
1477467231.436:    250  71   9  840
1477467231.436:    263  71   9  840
1477467231.438:    240  71   9  840
1477467231.438:    196  71   9  840
1477467231.438:    167  71   9  840
1477467231.452:    170  71   9  840
1477467231.452:    192  71   9  840
1477467231.452:    207  71   9  840
1477467231.455:    203  71   9  840
1477467231.456:    193  71   9  840
1477467231.456:    191  71   9  840
1477467231.457:    197  71   9  840
1477467231.458:    200  71   9  840
1477467231.459:    188  71   9  840
1477467231.459:    156  71   9  840
1477467231.460:    113  71   9  840
1477467231.460:     75  71   9  840
1477467231.470:     54  71   9  840
1477467231.471:     52  71   9  840
1477467231.471:     58  71   9  840
1477467231.471:     58  71   9  840
1477467231.471:     56  71   9  840
1477467231.471:     64  71   9  840
1477467231.475:     85  71   9  840
1477467231.475:    102  71   9  840
1477467231.475:     98  71   9  840
1477467231.482:     76  71   9  840
1477467231.489:     60  71   9  840
1477467231.489:     65  71   9  840
1477467231.490:     81  71   9  840
1477467231.490:     81  71   9  840
1477467231.490:     52  71   9  840
1477467231.491:      8  71   9  840
1477467231.491:    -31  71   9  840
1477467231.492:    -59  71   9  840
1477467231.494:    -80  71   9  840
1477467231.496:    -96  71   9  840
1477467231.506:   -107  71   9  840
1477467231.506:   -124  71   9  840
1477467231.507:   -158  71   9  840
1477467231.507:   -207  71   9  840
1477467231.507:   -248  71   9  840
1477467231.511:   -257  71   9  840
1477467231.511:   -241  71   9  840
1477467231.512:   -234  71   9  840
1477467231.515:   -255  71   9  840
1477467231.515:   -290  71   9  840
1477467231.523:   -301  71   9  840
1477467231.523:   -275  71   9  840
1477467231.524:   -235  71   9  840
1477467231.524:   -211  71   9  840
1477467231.525:   -212  71   9  840
1477467231.527:   -219  71   9  840
1477467231.532:   -210  71   9  840
1477467231.533:   -186  71   9  840
1477467231.540:   -164  71   9  840
1477467231.540:   -159  71   9  840
1477467231.541:   -168  71   9  840
1477467231.543:   -176  71   9  840
1477467231.543:   -168  71   9  840
1477467231.545:   -146  71   9  840
1477467231.546:   -122  71   9  840
1477467231.548:   -112  71   9  840
1477467231.549:   -116  71   9  840
1477467231.550:   -115  71   9  840
1477467231.560:    -84  71   9  840
1477467231.560:    -17  71   9  840
1477467231.560:     67  71   9  840
1477467231.560:    138  71   9  840
1477467231.560:    179  71   9  840
1477467231.562:    196  71   9  840
1477467231.564:    209  71   9  840
1477467231.565:    226  71   9  840
1477467231.570:    243  71   9  840
1477467231.570:    252  71   9  840
1477467231.599:    249  71   9  840
1477467231.599:    238  71   9  840
1477467231.599:    226  71   9  840
1477467231.600:    223  71   9  840
1477467231.600:    234  71   9  840
1477467231.601:    259  71   9  840
1477467231.601:    288  71   9  840
1477467231.601:    302  71   9  840
1477467231.601:    291  71   9  840
1477467231.602:    263  71   9  840
1477467231.602:    245  71   9  840
1477467231.603:    253  71   9  840
1477467231.603:    278  71   9  840
1477467231.603:    291  71   9  840
1477467231.604:    270  71   9  840
1477467231.604:    228  71   9  840
1477467231.604:    199  71   9  840
1477467231.604:    205  71   9  840
1477467231.606:    230  71   9  840
1477467231.611:    238  71   9  840
1477467231.623:    211  71   9  840
1477467231.623:    176  71   9  840
1477467231.623:    175  71   9  840
1477467231.623:    221  71   9  840
1477467231.624:    280  71   9  840
1477467231.624:    308  71   9  840
1477467231.625:    293  71   9  840
1477467231.625:    263  71   9  840
1477467231.626:    249  71   9  840
1477467231.629:    255  71   9  840
1477467231.630:    252  71   9  840
1477467231.632:    226  71   9  840
1477467231.642:    197  71   9  840
1477467231.643:    187  71   9  840
1477467231.643:    193  71   9  840
1477467231.643:    199  71   9  840
1477467231.643:    224  71   9  840
1477467231.644:    321  71   9  840
1477467231.646:    512  71   9  840
1477467231.647:    734  71   9  840
1477467231.652:    890  71   9  840
1477467231.652:    944  71   9  840
1477467231.663:    960  71   9  840
1477467231.663:    989  71   9  840
1477467231.663:    955  71   9  840
1477467231.663:    718  71   9  840
1477467231.663:    232  71   9  840
1477467231.666:   -411  71   9  840
1477467231.666:  -1134  71   9  840
1477467231.667:  -2017  71   9  840
1477467231.669:  -3188  71   9  840
1477467231.671:  -4590  71   9  840
1477467231.674:  -5934  71   9  840
1477467231.675:  -6955  71   9  840
1477467231.685:  -7638  71   9  840
1477467231.686:  -8123  71   9  840
1477467231.687:  -8401  71   9  840
1477467231.688:  -8227  71   9  840
1477467231.688:  -7397  71   9  840
1477467231.689:  -6045  71   9  840
1477467231.690:  -4576  71   9  840
1477467231.693:  -3297  71   9  840
1477467231.705:  -2207  71   9  840
1477467231.706:  -1165  71   9  840
1477467231.707:   -178  71   9  840
1477467231.708:    556  71   9  840
1477467231.708:    873  71   9  840
1477467231.709:    831  71   9  840
1477467231.710:    645  71   9  840
1477467231.710:    490  71   9  840
1477467231.711:    411  71   9  840
1477467231.713:    380  71   9  840
1477467231.713:    395  71   9  840
1477467231.715:    480  71   9  840
1477467231.724:    641  71   9  840
1477467231.724:    837  71   9  840
1477467231.724:   1011  71   9  840
1477467231.725:   1120  71   9  840
1477467231.725:   1154  71   9  840
1477467231.727:   1124  71   9  840
1477467231.729:   1057  71   9  840
1477467231.730:    983  71   9  840
1477467231.735:    923  71   9  840
1477467231.735:    887  71   9  840
1477467231.744:    887  71   9  840
1477467231.745:    929  71   9  840
1477467231.745:    999  71   9  840
1477467231.745:   1065  71   9  840
1477467231.746:   1097  71   9  840
1477467231.748:   1079  71   9  840
1477467231.749:   1016  71   9  840
1477467231.750:    930  71   9  840
1477467231.753:    854  71   9  840
1477467231.757:    820  71   9  840
1477467231.763:    839  71   9  840
1477467231.763:    891  71   9  840
1477467231.764:    940  71   9  840
1477467231.764:    963  71   9  840
1477467231.764:    960  71   9  840
1477467231.765:    943  71   9  840
1477467231.772:    916  71   9  840
1477467231.775:    875  71   9  840
1477467231.776:    829  71   9  840
1477467231.777:    792  71   9  840
1477467231.778:    772  71   9  840
1477467231.779:    759  71   9  840
1477467231.781:    739  71   9  840
1477467231.785:    712  71   9  840
1477467231.788:    691  71   9  840
1477467231.788:    682  71   9  840
1477467231.801:    676  71   9  840
1477467231.802:    656  71   9  840
1477467231.804:    625  71   9  840
1477467231.805:    603  71   9  840
1477467231.805:    608  71   9  840
1477467231.806:    634  71   9  840
1477467231.830:    652  72   9  839
1477467231.830:    641  72   9  839
1477467231.830:    605  72   9  839
1477467231.830:    571  72   9  839
1477467231.831:    557  72   9  839
1477467231.831:    556  72   9  839
1477467231.831:    542  72   9  839
1477467231.831:    506  72   9  839
1477467231.831:    464  72   9  839
1477467231.831:    443  72   9  839
1477467231.832:    454  72   9  839
1477467231.832:    479  72   9  839
1477467231.832:    492  72   9  839
1477467231.832:    484  72   9  839
1477467231.832:    470  72   9  839
1477467231.832:    469  72   9  839
1477467231.833:    480  72   9  839
1477467231.834:    484  72   9  839
1477467231.835:    469  72   9  839
1477467231.840:    447  72   9  839
1477467231.841:    440  72   9  839
1477467231.843:    448  72   9  839
1477467231.844:    450  72   9  839
1477467231.845:    423  72   9  839
1477467231.846:    374  72   9  839
1477467231.849:    324  72   9  839
1477467231.855:    288  72   9  839
1477467231.855:    260  72   9  839
1477467231.866:    233  72   9  839
1477467231.868:    212  72   9  839
1477467231.870:    210  72   9  839
1477467231.871:    221  72   9  839
1477467231.872:    224  72   9  839
1477467231.873:    205  72   9  839
1477467231.874:    180  72   9  839
1477467231.875:    166  72   9  839
1477467231.886:    163  72   9  839
1477467231.886:    146  72   9  839
1477467231.888:    101  72   9  839
1477467231.888:     37  72   9  839
1477467231.889:    -25  72   9  839
1477467231.890:    -73  72   9  839
1477467231.891:   -118  72   9  839
1477467231.891:   -167  72   9  839
1477467231.892:   -220  72   9  839
1477467231.893:   -268  72   9  839
1477467231.893:   -309  72   9  839
1477467231.895:   -347  72   9  839
1477467231.907:   -383  72   9  839
1477467231.907:   -415  72   9  839
1477467231.908:   -440  72   9  839
1477467231.909:   -463  72   9  839
1477467231.909:   -496  72   9  839
1477467231.912:   -543  72   9  839
1477467231.913:   -603  72   9  839
1477467231.913:   -666  72   9  839
1477467231.914:   -730  72   9  839
1477467231.914:   -793  72   9  839
1477467231.915:   -854  72   9  839
1477467231.918:   -903  72   9  839
1477467231.927:   -927  72   9  839
1477467231.927:   -926  72   9  839
1477467231.928:   -917  72   9  839
1477467231.928:   -918  72   9  839
1477467231.928:   -935  72   9  839
1477467231.928:   -961  72   9  839
1477467231.929:   -981  72   9  839
1477467231.931:   -997  72   9  839
1477467231.936:  -1016  72   9  839
1477467231.936:  -1040  72   9  839
1477467231.937:  -1063  72   9  839
1477467231.939:  -1080  72   9  839
1477467231.948:  -1089  72   9  839
1477467231.949:  -1095  72   9  839
1477467231.950:  -1095  72   9  839
1477467231.951:  -1080  72   9  839
1477467231.952:  -1042  72   9  839
1477467231.953:   -986  72   9  839
1477467231.954:   -931  72   9  839
1477467231.955:   -887  72   9  839
1477467231.967:   -855  72   9  839
1477467231.968:   -820  72   9  839
1477467231.968:   -768  72   9  839
1477467231.971:   -698  72   9  839
1477467231.971:   -623  72   9  839
1477467231.972:   -555  72   9  839
1477467231.973:   -499  72   9  839
1477467231.974:   -445  72   9  839
1477467231.974:   -378  72   9  839
1477467231.975:   -295  72   9  839
1477467231.977:   -207  72   9  839
1477467231.983:   -129  72   9  839
1477467231.984:    -62  72   9  839
1477467231.985:      1  72   9  839
1477467231.986:     65  72   9  839
1477467231.989:    127  72   9  839
1477467231.989:    184  72   9  839
1477467231.990:    241  72   9  839
1477467231.992:    310  72   9  839
1477467231.996:    388  72   9  839
1477467232.009:    457  72   9  839
1477467232.009:    498  72   9  839
1477467232.010:    515  72   9  839
1477467232.010:    528  72   9  839
1477467232.010:    546  72   9  839
1477467232.011:    560  72   9  839
1477467232.015:    554  72   9  839
1477467232.015:    534  72   9  839
1477467232.025:    529  72   9  839
1477467232.025:    555  72   9  839
1477467232.025:    599  72   9  839
1477467232.025:    626  72   9  839
1477467232.025:    620  72   9  839
1477467232.025:    603  72   9  839
1477467232.026:    604  72   9  839
1477467232.026:    630  72   9  839
1477467232.026:    653  72   9  839
1477467232.031:    643  72   9  839
1477467232.032:    606  72   9  839
1477467232.033:    572  72   9  839
1477467232.043:    566  72   9  839
1477467232.043:    578  72   9  839
1477467232.044:    582  72   9  839
1477467232.044:    566  72   9  839
1477467232.044:    552  72   9  839
1477467232.047:    565  72   9  839
1477467232.048:    598  72   9  839
1477467232.051:    620  72   9  839
1477467232.059:    610  72   9  839
1477467232.059:    584  72   9  839
1477467232.059:    576  72   9  839
1477467232.059:    599  72   9  839
1477467232.060:    632  72   9  839
1477467232.063:    641  72   9  839
1477467232.063:    615  72   9  839
1477467232.067:    570  72   9  839
1477467232.067:    534  72   9  839
1477467232.067:    523  72   9  839
1477467232.075:    531  72   9  839
1477467232.076:    542  72   9  839
1477467232.078:    543  72   9  839
1477467232.079:    532  72   9  839
1477467232.081:    520  72   9  839
1477467232.082:    516  72   9  839
1477467232.083:    519  72   9  839
1477467232.084:    524  72   9  839
1477467232.087:    526  72   9  839
1477467232.088:    530  72   9  839
1477467232.096:    542  72   9  839
1477467232.097:    560  72   9  839
1477467232.097:    569  72   9  839
1477467232.097:    564  72   9  839
1477467232.103:    555  72   9  839
1477467232.103:    556  72   9  839
1477467232.103:    568  72   9  839
1477467232.104:    577  72   9  839
1477467232.108:    564  72   9  839
1477467232.109:    534  72   9  839
1477467232.112:    507  72   9  839
1477467232.113:    504  72   9  839
1477467232.116:    523  72   9  839
1477467232.117:    548  72   9  839
1477467232.138:    565  72   9  839
1477467232.226:    572  72   9  839
1477467232.227:    574  72   9  839
1477467232.227:    572  72   9  839
1477467232.227:    565  72   9  839
1477467232.227:    548  72   9  839
1477467232.229:    524  72   9  839
1477467232.229:    498  72   9  839
1477467232.229:    478  72   9  839
1477467232.229:    469  72   9  839
1477467232.230:    470  72   9  839
1477467232.230:    473  72   9  839
1477467232.230:    469  72   9  839
1477467232.230:    460  72   9  839
1477467232.230:    454  72   9  839
1477467232.230:    462  72   9  839
1477467232.230:    471  72   9  839
1477467232.231:    465  72   9  839
1477467232.231:    440  72   9  839
1477467232.231:    419  72   9  839
1477467232.231:    429  72   9  839
1477467232.231:    466  72   9  839
1477467232.231:    495  72   9  839
1477467232.231:    483  72   9  839
1477467232.232:    435  72   9  839
1477467232.232:    389  72   9  839
1477467232.232:    370  72   9  839
1477467232.232:    367  72   9  839
1477467232.232:    346  72   9  839
1477467232.232:    296  72   9  839
1477467232.232:    240  72   9  839
1477467232.233:    214  72   9  839
1477467232.233:    218  72   9  839
1477467232.233:    227  72   9  839
1477467232.233:    225  72   9  839
1477467232.233:    223  72   9  839
1477467232.233:    239  72   9  839
1477467232.234:    262  72   9  839
1477467232.234:    268  72   9  839
1477467232.234:    249  72   9  839
1477467232.234:    229  72   9  839
1477467232.234:    233  72   9  839
1477467232.234:    254  72   9  839
1477467232.234:    258  72   9  839
1477467232.234:    229  72   9  839
1477467232.235:    193  72   9  839
1477467232.235:    182  72   9  839
1477467232.235:    198  72   9  839
1477467232.235:    212  72   9  839
1477467232.235:    206  72   9  839
1477467232.235:    196  72   9  839
1477467232.235:    207  72   9  839
1477467232.236:    234  72   9  839
1477467232.237:    246  72   9  839
1477467232.237:    230  72   9  839
1477467232.237:    204  72   9  839
1477467232.237:    192  72   9  839
1477467232.237:    195  72   9  839
1477467232.238:    193  72   9  839
1477467232.238:    173  72   9  839
1477467232.238:    148  72   9  839
1477467232.238:    137  72   9  839
1477467232.244:    143  72   9  839
1477467232.245:    149  72   9  839
1477467232.260:    148  72   9  839
1477467232.261:    145  72   9  839
1477467232.262:    150  72   9  839
1477467232.262:    160  72   9  839
1477467232.262:    164  72   9  839
1477467232.262:    160  72   9  839
1477467232.263:    156  72   9  839
1477467232.263:    158  72   9  839
1477467232.263:    165  72   9  839
1477467232.263:    171  72   9  839
1477467232.264:    165  72   9  839
1477467232.267:    151  72   9  839
1477467232.268:    136  72   9  839
1477467232.269:    131  72   9  839
1477467232.280:    137  72   9  839
1477467232.281:    144  72   9  839
1477467232.282:    137  72   9  839
1477467232.283:    111  72   9  839
1477467232.284:     77  72   9  839
1477467232.284:     51  72   9  839
1477467232.285:     39  72   9  839
1477467232.287:     28  72   9  839
1477467232.297:     13  72   9  839
1477467232.297:     -2  72   9  839
1477467232.297:     -5  72   9  839
1477467232.299:      4  72   9  839
1477467232.300:     12  72   9  839
1477467232.300:      9  72   9  839
1477467232.300:     -3  72   9  839
1477467232.302:    -19  72   9  839
1477467232.304:    -40  72   9  839
1477467232.305:    -79  72   9  839
1477467232.308:   -132  72   9  839
1477467232.308:   -186  72   9  839
1477467232.311:   -228  72   9  839
1477467232.313:   -260  72   9  839
1477467232.322:   -286  72   9  839
1477467232.322:   -300  72   9  839
1477467232.323:   -285  72   9  839
1477467232.323:   -241  72   9  839
1477467232.323:   -191  72   9  839
1477467232.324:   -170  72   9  839
1477467232.327:   -180  72   9  839
1477467232.331:   -197  72   9  839
1477467232.341:   -198  72   9  839
1477467232.341:   -183  72   9  839
1477467232.342:   -174  72   9  839
1477467232.342:   -176  72   9  839
1477467232.343:   -178  72   9  839
1477467232.343:   -162  72   9  839
1477467232.345:   -132  72   9  839
1477467232.345:   -103  72   9  839
1477467232.346:    -88  72   9  839
1477467232.348:    -80  72   9  839
1477467232.349:    -69  72   9  839
1477467232.355:    -54  72   9  839
1477467232.356:    -45  72   9  839
1477467232.359:    -36  72   9  839
1477467232.360:    -13  72   9  839
1477467232.362:     37  72   9  839
1477467232.363:    109  72   9  839
1477467232.364:    182  72   9  839
1477467232.366:    238  72   9  839
1477467232.368:    273  72   9  839
1477467232.373:    292  72   9  839
1477467232.375:    305  72   9  839
1477467232.375:    318  72   9  839
1477467232.378:    331  72   9  839
1477467232.401:    338  72   9  839
1477467232.402:    333  72   9  839
1477467232.403:    316  72   9  839
1477467232.407:    300  72   9  839
1477467232.407:    293  72   9  839
1477467232.407:    297  72   9  839
1477467232.407:    305  72   9  839
1477467232.408:    309  72   9  839
1477467232.408:    311  72   9  839
1477467232.408:    317  72   9  839
1477467232.409:    325  72   9  839
1477467232.409:    328  72   9  839
1477467232.409:    319  72   9  839
1477467232.409:    304  72   9  839
1477467232.409:    288  72   9  839
1477467232.410:    277  72   9  839
1477467232.413:    272  72   9  839
1477467232.413:    272  72   9  839
1477467232.414:    277  72   9  839
1477467232.415:    287  72   9  839
1477467232.421:    303  72   9  839
1477467232.421:    321  72   9  839
1477467232.421:    339  72   9  839
1477467232.423:    350  72   9  839
1477467232.427:    344  72   9  839
1477467232.427:    317  72   9  839
1477467232.429:    283  72   9  839
1477467232.430:    261  72   9  839
1477467232.445:    260  72   9  839
1477467232.445:    262  72   9  839
1477467232.446:    240  72   9  839
1477467232.460:    193  72   9  839
1477467232.466:    149  72   9  839
1477467232.466:    127  72   9  839
1477467232.467:    123  72   9  839
1477467232.467:    131  72   9  839
1477467232.468:    185  72   9  839
1477467232.468:    334  72   9  839
1477467232.468:    573  72   9  839
1477467232.469:    814  72   9  839
1477467232.469:    956  72   9  839
1477467232.469:    990  72   9  839
1477467232.470:    996  72   9  839
1477467232.471:    991  72   9  839
1477467232.471:    864  72   9  839
1477467232.471:    484  72   9  839
1477467232.472:   -140  72   9  839
1477467232.472:   -893  72   9  839
1477467232.473:  -1720  72   9  839
1477467232.473:  -2724  72   9  839
1477467232.476:  -3990  72   9  839
1477467232.478:  -5392  72   9  839
1477467232.487:  -6639  72   9  839
1477467232.487:  -7549  72   9  839
1477467232.487:  -8165  72   9  839
1477467232.487:  -8564  72   9  839
1477467232.488:  -8625  72   9  839
1477467232.489:  -8108  72   9  839
1477467232.492:  -6969  72   9  839
1477467232.498:  -5496  72   9  839
1477467232.504:  -4065  72   9  839
1477467232.505:  -2818  72   9  839
1477467232.506:  -1652  72   9  839
1477467232.507:   -504  72   9  839
1477467232.508:    464  72   9  839
1477467232.508:   1019  72   9  839
1477467232.510:   1119  72   9  839
1477467232.510:    961  72   9  839
1477467232.511:    775  72   9  839
1477467232.514:    649  72   9  839
1477467232.523:    559  72   9  839
1477467232.523:    501  72   9  839
1477467232.524:    530  72   9  839
1477467232.525:    675  72   9  839
1477467232.525:    887  72   9  839
1477467232.525:   1082  72   9  839
1477467232.527:   1216  72   9  839
1477467232.528:   1295  72   9  839
1477467232.530:   1331  72   9  839
1477467232.533:   1306  72   9  839
1477467232.542:   1217  72   9  839
1477467232.543:   1097  72   9  839
1477467232.543:    995  72   9  839
1477467232.543:    946  72   9  839
1477467232.543:    954  72   9  839
1477467232.547:   1001  72   9  839
1477467232.547:   1065  72   9  839
1477467232.551:   1124  72   9  839
1477467232.563:   1151  72   9  839
1477467232.563:   1121  72   9  839
1477467232.563:   1039  72   9  839
1477467232.563:    939  72   9  839
1477467232.563:    868  72   9  839
1477467232.563:    853  72   9  839
1477467232.563:    886  72   9  839
1477467232.567:    938  72   9  839
1477467232.568:    975  72   9  839
1477467232.570:    973  72   9  839
1477467232.570:    929  72   9  839
1477467232.572:    869  72   9  839
1477467232.574:    826  72   9  839
1477467232.580:    819  72   9  839
1477467232.583:    831  72   9  839
1477467232.583:    830  72   9  839
1477467232.584:    803  72   9  839
1477467232.584:    768  72   9  839
1477467232.591:    751  72   9  839
1477467232.592:    759  72   9  839
1477467232.593:    775  72   9  839
1477467232.595:    777  72   9  839
1477467232.595:    758  72   9  839
1477467232.598:    725  72   9  839
1477467232.598:    690  72   9  839
1477467232.599:    664  72   9  839
1477467232.617:    657  73   9  834
1477467232.617:    667  73   9  834
1477467232.617:    681  73   9  834
1477467232.617:    678  73   9  834
1477467232.618:    650  73   9  834
1477467232.618:    611  73   9  834
1477467232.618:    579  73   9  834
1477467232.619:    569  73   9  834
1477467232.620:    570  73   9  834
1477467232.620:    571  73   9  834
1477467232.621:    559  73   9  834
1477467232.625:    535  73   9  834
1477467232.625:    503  73   9  834
1477467232.627:    475  73   9  834
1477467232.628:    459  73   9  834
1477467232.634:    460  73   9  834
1477467232.634:    466  73   9  834
1477467232.635:    461  73   9  834
1477467232.637:    439  73   9  834
1477467232.639:    414  73   9  834
1477467232.651:    410  73   9  834
1477467232.651:    430  73   9  834
1477467232.652:    447  73   9  834
1477467232.652:    437  73   9  834
1477467232.652:    399  73   9  834
1477467232.652:    364  73   9  834
1477467232.654:    357  73   9  834
1477467232.655:    363  73   9  834
1477467232.658:    348  73   9  834
1477467232.660:    297  73   9  834
1477467232.669:    235  73   9  834
1477467232.669:    201  73   9  834
1477467232.669:    201  73   9  834
1477467232.669:    204  73   9  834
1477467232.669:    178  73   9  834
1477467232.669:    125  73   9  834
1477467232.676:     78  73   9  834
1477467232.676:     60  73   9  834
1477467232.678:     62  73   9  834
1477467232.683:     58  73   9  834
1477467232.688:     32  73   9  834
1477467232.688:    -13  73   9  834
1477467232.688:    -66  73   9  834
1477467232.689:   -124  73   9  834
1477467232.690:   -189  73   9  834
1477467232.690:   -260  73   9  834
1477467232.694:   -328  73   9  834
1477467232.694:   -384  73   9  834
1477467232.695:   -425  73   9  834
1477467232.697:   -457  73   9  834
1477467232.707:   -490  73   9  834
1477467232.707:   -532  73   9  834
1477467232.707:   -583  73   9  834
1477467232.709:   -632  73   9  834
1477467232.709:   -669  73   9  834
1477467232.709:   -694  73   9  834
1477467232.713:   -718  73   9  834
1477467232.714:   -753  73   9  834
1477467232.715:   -799  73   9  834
1477467232.729:   -851  73   9  834
1477467232.737:   -903  73   9  834
1477467232.737:   -952  73   9  834
1477467232.738:   -997  73   9  834
1477467232.738:  -1039  73   9  834
1477467232.738:  -1080  73   9  834
1477467232.738:  -1124  73   9  834
1477467232.738:  -1170  73   9  834
1477467232.738:  -1208  73   9  834
1477467232.739:  -1228  73   9  834
1477467232.746:  -1227  73   9  834
1477467232.746:  -1218  73   9  834
1477467232.748:  -1213  73   9  834
1477467232.750:  -1211  73   9  834
1477467232.750:  -1204  73   9  834
1477467232.750:  -1190  73   9  834
1477467232.752:  -1173  73   9  834
1477467232.754:  -1158  73   9  834
1477467232.754:  -1143  73   9  834
1477467232.755:  -1111  73   9  834
1477467232.758:  -1058  73   9  834
1477467232.770:   -993  73   9  834
1477467232.770:   -933  73   9  834
1477467232.770:   -885  73   9  834
1477467232.771:   -839  73   9  834
1477467232.771:   -778  73   9  834
1477467232.772:   -694  73   9  834
1477467232.772:   -600  73   9  834
1477467232.772:   -513  73   9  834
1477467232.774:   -436  73   9  834
1477467232.775:   -353  73   9  834
1477467232.778:   -250  73   9  834
1477467232.780:   -134  73   9  834
1477467232.787:    -31  73   9  834
1477467232.787:     37  73   9  834
1477467232.787:     75  73   9  834
1477467232.787:    109  73   9  834
1477467232.789:    156  73   9  834
1477467232.793:    203  73   9  834
1477467232.794:    227  73   9  834
1477467232.795:    229  73   9  834
1477467232.799:    239  73   9  834
1477467232.800:    285  73   9  834
1477467232.808:    361  73   9  834
1477467232.808:    430  73   9  834
1477467232.808:    465  73   9  834
1477467232.808:    480  73   9  834
1477467232.809:    508  73   9  834
1477467232.813:    562  73   9  834
1477467232.813:    620  73   9  834
1477467232.815:    651  73   9  834
1477467232.816:    649  73   9  834
1477467232.819:    638  73   9  834
1477467232.827:    638  73   9  834
1477467232.827:    651  73   9  834
1477467232.828:    664  73   9  834
1477467232.828:    667  73   9  834
1477467232.829:    662  73   9  834
1477467232.830:    659  73   9  834
1477467232.832:    666  73   9  834
1477467232.835:    684  73   9  834
1477467232.836:    712  73   9  834
1477467232.840:    743  73   9  834
1477467232.848:    768  73   9  834
1477467232.849:    785  73   9  834
1477467232.849:    799  73   9  834
1477467232.849:    816  73   9  834
1477467232.849:    824  73   9  834
1477467232.850:    802  73   9  834
1477467232.854:    747  73   9  834
1477467232.855:    689  73   9  834
1477467232.856:    661  73   9  834
1477467232.859:    668  73   9  834
1477467232.860:    675  73   9  834
1477467232.862:    652  73   9  834
1477467232.864:    610  73   9  834
1477467232.868:    587  73   9  834
1477467232.877:    607  73   9  834
1477467232.877:    656  73   9  834
1477467232.877:    697  73   9  834
1477467232.877:    706  73   9  834
1477467232.878:    692  73   9  834
1477467232.879:    680  73   9  834
1477467232.882:    684  73   9  834
1477467232.882:    702  73   9  834
1477467232.884:    722  73   9  834
1477467232.886:    727  73   9  834
1477467232.900:    714  73   9  834
1477467232.901:    693  73   9  834
1477467232.901:    681  73   9  834
1477467232.901:    693  73   9  834
1477467232.901:    721  73   9  834
1477467232.901:    745  73   9  834
1477467232.901:    748  73   9  834
1477467232.902:    730  73   9  834
1477467232.905:    703  73   9  834
1477467232.905:    685  73   9  834
1477467232.907:    684  73   9  834
1477467232.908:    693  73   9  834
1477467232.911:    698  73   9  834
1477467232.913:    691  73   9  834
1477467232.925:    673  73   9  834
1477467232.996:    658  73   9  834
1477467232.996:    656  73   9  834
1477467232.996:    659  73   9  834
1477467232.996:    648  73   9  834
1477467232.996:    610  73   9  834
1477467232.996:    557  73   9  834
1477467232.996:    511  73   9  834
1477467232.997:    488  73   9  834
1477467232.997:    487  73   9  834
1477467232.997:    494  73   9  834
1477467232.997:    500  73   9  834
1477467232.997:    507  73   9  834
1477467232.997:    518  73   9  834
1477467232.997:    528  73   9  834
1477467232.998:    530  73   9  834
1477467232.998:    522  73   9  834
1477467232.998:    514  73   9  834
1477467232.998:    519  73   9  834
1477467232.998:    540  73   9  834
1477467232.998:    561  73   9  834
1477467232.998:    559  73   9  834
1477467232.999:    526  73   9  834
1477467232.999:    478  73   9  834
1477467232.999:    438  73   9  834
1477467232.999:    418  73   9  834
1477467232.999:    406  73   9  834
1477467232.999:    387  73   9  834
1477467232.999:    363  73   9  834
1477467233.000:    350  73   9  834
1477467233.000:    358  73   9  834
1477467233.000:    382  73   9  834
1477467233.000:    408  73   9  834
1477467233.000:    427  73   9  834
1477467233.000:    442  73   9  834
1477467233.000:    451  73   9  834
1477467233.000:    442  73   9  834
1477467233.001:    403  73   9  834
1477467233.001:    338  73   9  834
1477467233.001:    276  73   9  834
1477467233.001:    247  73   9  834
1477467233.001:    256  73   9  834
1477467233.001:    273  73   9  834
1477467233.001:    269  73   9  834
1477467233.003:    243  73   9  834
1477467233.004:    225  73   9  834
1477467233.006:    242  73   9  834
1477467233.008:    293  73   9  834
1477467233.022:    345  73   9  834
1477467233.022:    363  73   9  834
1477467233.023:    348  73   9  834
1477467233.023:    325  73   9  834
1477467233.023:    320  73   9  834
1477467233.023:    334  73   9  834
1477467233.023:    347  73   9  834
1477467233.024:    343  73   9  834
1477467233.032:    323  73   9  834
1477467233.033:    301  73   9  834
1477467233.043:    285  73   9  834
1477467233.043:    277  73   9  834
1477467233.043:    269  73   9  834
1477467233.044:    262  73   9  834
1477467233.044:    259  73   9  834
1477467233.044:    265  73   9  834
1477467233.044:    275  73   9  834
1477467233.044:    281  73   9  834
1477467233.045:    281  73   9  834
1477467233.051:    279  73   9  834
1477467233.051:    279  73   9  834
1477467233.053:    279  73   9  834
1477467233.062:    276  73   9  834
1477467233.063:    268  73   9  834
1477467233.063:    261  73   9  834
1477467233.063:    260  73   9  834
1477467233.063:    260  73   9  834
1477467233.064:    252  73   9  834
1477467233.065:    235  73   9  834
1477467233.071:    217  73   9  834
1477467233.071:    210  73   9  834
1477467233.073:    211  73   9  834
1477467233.074:    213  73   9  834
1477467233.075:    210  73   9  834
1477467233.077:    206  73   9  834
1477467233.079:    202  73   9  834
1477467233.083:    192  73   9  834
1477467233.083:    167  73   9  834
1477467233.087:    132  73   9  834
1477467233.087:    105  73   9  834
1477467233.089:     96  73   9  834
1477467233.090:    100  73   9  834
1477467233.093:    100  73   9  834
1477467233.097:     88  73   9  834
1477467233.108:     68  73   9  834
1477467233.109:     45  73   9  834
1477467233.109:     22  73   9  834
1477467233.110:     -4  73   9  834
1477467233.110:    -34  73   9  834
1477467233.111:    -68  73   9  834
1477467233.116:   -106  73   9  834
1477467233.116:   -151  73   9  834
1477467233.127:   -199  73   9  834
1477467233.128:   -237  73   9  834
1477467233.129:   -252  73   9  834
1477467233.130:   -236  73   9  834
1477467233.130:   -201  73   9  834
1477467233.131:   -162  73   9  834
1477467233.132:   -134  73   9  834
1477467233.132:   -121  73   9  834
1477467233.138:   -114  73   9  834
1477467233.138:    -99  73   9  834
1477467233.145:    -69  73   9  834
1477467233.145:    -31  73   9  834
1477467233.146:     -4  73   9  834
1477467233.146:     -1  73   9  834
1477467233.146:    -18  73   9  834
1477467233.147:    -37  73   9  834
1477467233.148:    -42  73   9  834
1477467233.148:    -25  73   9  834
1477467233.149:      8  73   9  834
1477467233.153:     45  73   9  834
1477467233.155:     71  73   9  834
1477467233.156:     74  73   9  834
1477467233.170:     65  73   9  834
1477467233.171:     72  73   9  834
1477467233.191:    118  73   9  834
1477467233.191:    188  73   9  834
1477467233.191:    243  73   9  834
1477467233.198:    257  73   9  834
1477467233.208:    243  73   9  834
1477467233.208:    243  73   9  834
1477467233.208:    277  73   9  834
1477467233.208:    328  73   9  834
1477467233.208:    365  73   9  834
1477467233.208:    378  73   9  834
1477467233.208:    379  73   9  834
1477467233.209:    386  73   9  834
1477467233.209:    398  73   9  834
1477467233.209:    402  73   9  834
1477467233.209:    386  73   9  834
1477467233.209:    355  73   9  834
1477467233.209:    326  73   9  834
1477467233.209:    318  73   9  834
1477467233.210:    334  73   9  834
1477467233.210:    357  73   9  834
1477467233.210:    364  73   9  834
1477467233.210:    353  73   9  834
1477467233.210:    343  73   9  834
1477467233.211:    351  73   9  834
1477467233.211:    368  73   9  834
1477467233.211:    369  73   9  834
1477467233.212:    343  73   9  834
1477467233.215:    313  73   9  834
1477467233.216:    310  73   9  834
1477467233.218:    340  73   9  834
1477467233.219:    376  73   9  834
1477467233.220:    384  73   9  834
1477467233.221:    365  73   9  834
1477467233.224:    348  73   9  834
1477467233.230:    358  73   9  834
1477467233.231:    385  73   9  834
1477467233.231:    397  73   9  834
1477467233.233:    374  73   9  834
1477467233.234:    331  73   9  834
1477467233.235:    301  73   9  834
1477467233.238:    302  73   9  834
1477467233.239:    313  73   9  834
1477467233.244:    303  73   9  834
1477467233.245:    268  73   9  834
1477467233.246:    229  73   9  834
1477467233.250:    205  73   9  834
1477467233.277:    192  73   9  834
1477467233.278:    196  73   9  834
1477467233.279:    253  73   9  834
1477467233.280:    403  73   9  834
1477467233.280:    625  73   9  834
1477467233.281:    826  73   9  834
1477467233.282:    920  73   9  834
1477467233.282:    920  73   9  834
1477467233.283:    894  73   9  834
1477467233.283:    844  73   9  834
1477467233.284:    662  73   9  834
1477467233.285:    248  73   9  834
1477467233.285:   -378  73   9  834
1477467233.286:  -1121  73   9  834
1477467233.287:  -1950  73   9  834
1477467233.288:  -2935  73   9  834
1477467233.288:  -4096  73   9  834
1477467233.288:  -5281  73   9  834
1477467233.288:  -6262  73   9  834
1477467233.288:  -6931  73   9  834
1477467233.303:  -7330  73   9  834
1477467233.303:  -7474  73   9  834
1477467233.304:  -7232  73   9  834
1477467233.305:  -6468  73   9  834
1477467233.306:  -5269  73   9  834
1477467233.306:  -3935  73   9  834
1477467233.307:  -2720  73   9  834
1477467233.308:  -1648  73   9  834
1477467233.309:   -619  73   9  834
1477467233.309:    345  73   9  834
1477467233.323:   1052  73   9  834
1477467233.323:   1349  73   9  834
1477467233.325:   1304  73   9  834
1477467233.326:   1136  73   9  834
1477467233.326:   1012  73   9  834
1477467233.327:    942  73   9  834
1477467233.328:    874  73   9  834
1477467233.331:    808  73   9  834
1477467233.343:    793  73   9  834
1477467233.343:    855  73   9  834
1477467233.344:    967  73   9  834
1477467233.345:   1083  73   9  834
1477467233.346:   1171  73   9  834
1477467233.347:   1215  73   9  834
1477467233.348:   1189  73   9  834
1477467233.348:   1086  73   9  834
1477467233.349:    941  73   9  834
1477467233.349:    815  73   9  834
1477467233.361:    750  73   9  834
1477467233.362:    743  73   9  834
1477467233.363:    768  73   9  834
1477467233.364:    800  73   9  834
1477467233.364:    834  73   9  834
1477467233.365:    864  73   9  834
1477467233.366:    877  73   9  834
1477467233.366:    857  73   9  834
1477467233.367:    807  73   9  834
1477467233.368:    753  73   9  834
1477467233.368:    720  73   9  834
1477467233.369:    722  73   9  834
1477467233.379:    748  73   9  834
1477467233.380:    781  73   9  834
1477467233.381:    807  73   9  834
1477467233.382:    818  73   9  834
1477467233.382:    810  73   9  834
1477467233.383:    780  73   9  834
1477467233.384:    736  73   9  834
1477467233.384:    694  73   9  834
1477467233.385:    667  73   9  834
1477467233.388:    654  73   9  834
1477467233.398:    640  73   9  834
1477467233.399:    612  73   9  834
1477467233.400:    577  73   9  834
1477467233.400:    554  73   9  834
1477467233.401:    550  73   9  834
1477467233.401:    553  73   9  834
1477467233.406:    545  73   9  834
1477467233.407:    528  73   9  834
1477467233.409:    521  73   9  834
1477467233.410:    530  73   9  834
1477467233.411:    541  73   9  830
1477467233.412:    532  73   9  830
1477467233.415:    504  73   9  830
1477467233.416:    473  73   9  830
1477467233.416:    453  73   9  830
1477467233.418:    437  73   9  830
1477467233.419:    413  73   9  830
1477467233.420:    389  73   9  830
1477467233.422:    382  73   9  830
1477467233.424:    395  73   9  830
1477467233.436:    404  73   9  830
1477467233.436:    390  73   9  830
1477467233.437:    358  73   9  830
1477467233.438:    334  73   9  830
1477467233.438:    333  73   9  830
1477467233.439:    340  73   9  830
1477467233.440:    331  73   9  830
1477467233.442:    300  73   9  830
1477467233.442:    264  73   9  830
1477467233.449:    241  73   9  830
1477467233.455:    235  73   9  830
1477467233.455:    235  73   9  830
1477467233.455:    228  73   9  830
1477467233.455:    215  73   9  830
1477467233.456:    207  73   9  830
1477467233.456:    213  73   9  830
1477467233.458:    226  73   9  830
1477467233.459:    225  73   9  830
1477467233.464:    193  73   9  830
1477467233.468:    135  73   9  830
1477467233.475:     80  73   9  830
1477467233.475:     49  73   9  830
1477467233.475:     33  73   9  830
1477467233.475:      3  73   9  830
1477467233.476:    -53  73   9  830
1477467233.479:   -111  73   9  830
1477467233.480:   -142  73   9  830
1477467233.481:   -144  73   9  830
1477467233.482:   -143  73   9  830
1477467233.485:   -165  73   9  830
1477467233.486:   -210  73   9  830
1477467233.490:   -261  73   9  830
1477467233.490:   -306  73   9  830
1477467233.491:   -347  73   9  830
1477467233.492:   -389  73   9  830
1477467233.501:   -430  73   9  830
1477467233.522:   -469  73   9  830
1477467233.523:   -515  73   9  830
1477467233.523:   -572  73   9  830
1477467233.523:   -632  73   9  830
1477467233.523:   -678  73   9  830
1477467233.523:   -705  73   9  830
1477467233.524:   -728  73   9  830
1477467233.524:   -767  73   9  830
1477467233.524:   -819  73   9  830
1477467233.524:   -867  73   9  830
1477467233.524:   -898  73   9  830
1477467233.525:   -919  73   9  830
1477467233.525:   -950  73   9  830
1477467233.525:   -997  73   9  830
1477467233.525:  -1050  73   9  830
1477467233.527:  -1092  73   9  830
1477467233.530:  -1118  73   9  830
1477467233.534:  -1140  73   9  830
1477467233.538:  -1168  73   9  830
1477467233.541:  -1199  73   9  830
1477467233.551:  -1216  73   9  830
1477467233.551:  -1214  73   9  830
1477467233.551:  -1203  73   9  830
1477467233.551:  -1207  73   9  830
1477467233.551:  -1233  73   9  830
1477467233.551:  -1264  73   9  830
1477467233.551:  -1274  73   9  830
1477467233.551:  -1253  73   9  830
1477467233.557:  -1216  73   9  830
1477467233.558:  -1188  73   9  830
1477467233.559:  -1176  73   9  830
1477467233.562:  -1161  73   9  830
1477467233.562:  -1118  73   9  830
1477467233.566:  -1040  73   9  830
1477467233.566:   -950  73   9  830
1477467233.568:   -875  73   9  830
1477467233.568:   -826  73   9  830
1477467233.570:   -781  73   9  830
1477467233.575:   -718  73   9  830
1477467233.575:   -632  73   9  830
1477467233.590:   -546  73   9  830
1477467233.591:   -474  73   9  830
1477467233.593:   -412  73   9  830
1477467233.594:   -338  73   9  830
1477467233.599:   -245  73   9  830
1477467233.600:   -151  73   9  830
1477467233.610:    -79  73   9  830
1477467233.613:    -31  73   9  830
1477467233.616:      9  73   9  830
1477467233.616:     57  73   9  830
1477467233.629:    112  73   9  830
1477467233.630:    159  73   9  830
1477467233.630:    190  73   9  830
1477467233.631:    210  73   9  830
1477467233.632:    231  73   9  830
1477467233.632:    261  73   9  830
1477467233.633:    296  73   9  830
1477467233.633:    330  73   9  830
1477467233.645:    364  73   9  830
1477467233.645:    406  73   9  830
1477467233.645:    457  73   9  830
1477467233.646:    507  73   9  830
1477467233.646:    540  73   9  830
1477467233.646:    547  73   9  830
1477467233.646:    538  73   9  830
1477467233.646:    531  73   9  830
1477467233.648:    533  73   9  830
1477467233.648:    535  73   9  830
1477467233.648:    526  73   9  830
1477467233.649:    509  73   9  830
1477467233.649:    503  73   9  830
1477467233.649:    524  73   9  830
1477467233.649:    570  73   9  830
1477467233.651:    622  73   9  830
1477467233.651:    658  73   9  830
1477467233.651:    674  73   9  830
1477467233.682:    683  73   9  830
1477467233.685:    696  73   9  830
1477467233.691:    713  73   9  830
1477467233.692:    720  73   9  830
1477467233.692:    711  73   9  830
1477467233.696:    696  73   9  830
1477467233.696:    692  73   9  830
1477467233.696:    704  73   9  830
1477467233.696:    717  73   9  830
1477467233.697:    713  73   9  830
1477467233.697:    692  73   9  830
1477467233.697:    674  73   9  830
1477467233.698:    677  73   9  830
1477467233.700:    695  73   9  830
1477467233.701:    702  73   9  830
1477467233.701:    685  73   9  830
1477467233.701:    656  73   9  830
1477467233.701:    642  73   9  830
1477467233.702:    655  73   9  830
1477467233.702:    679  73   9  830
1477467233.702:    690  73   9  830
1477467233.702:    678  73   9  830
1477467233.703:    661  73   9  830
1477467233.703:    662  73   9  830
1477467233.704:    683  73   9  830
1477467233.705:    701  73   9  830
1477467233.706:    699  73   9  830
1477467233.711:    678  73   9  830
1477467233.798:    659  73   9  830
1477467233.798:    652  73   9  830
1477467233.798:    649  73   9  830
1477467233.798:    638  73   9  830
1477467233.798:    618  73   9  830
1477467233.798:    606  73   9  830
1477467233.799:    617  73   9  830
1477467233.799:    644  73   9  830
1477467233.800:    665  73   9  830
1477467233.803:    664  73   9  830
1477467233.803:    645  73   9  830
1477467233.803:    624  73   9  830
1477467233.803:    612  73   9  830
1477467233.803:    605  73   9  830
1477467233.804:    593  73   9  830
1477467233.804:    573  73   9  830
1477467233.804:    549  73   9  830
1477467233.804:    529  73   9  830
1477467233.804:    521  73   9  830
1477467233.805:    527  73   9  830
1477467233.806:    543  73   9  830
1477467233.807:    557  73   9  830
1477467233.807:    555  73   9  830
1477467233.808:    535  73   9  830
1477467233.808:    504  73   9  830
1477467233.809:    473  73   9  830
1477467233.809:    450  73   9  830
1477467233.809:    429  73   9  830
1477467233.810:    403  73   9  830
1477467233.810:    378  73   9  830
1477467233.810:    362  73   9  830
1477467233.812:    359  73   9  830
1477467233.829:    358  73   9  830
1477467233.830:    349  73   9  830
1477467233.830:    333  73   9  830
1477467233.831:    325  73   9  830
1477467233.831:    332  73   9  830
1477467233.832:    347  73   9  830
1477467233.833:    354  73   9  830
1477467233.833:    345  73   9  830
1477467233.834:    325  73   9  830
1477467233.834:    305  73   9  830
1477467233.835:    289  73   9  830
1477467233.835:    274  73   9  830
1477467233.837:    256  73   9  830
1477467233.837:    238  73   9  830
1477467233.838:    220  73   9  830
1477467233.838:    209  73   9  830
1477467233.838:    211  73   9  830
1477467233.838:    225  73   9  830
1477467233.838:    245  73   9  830
1477467233.839:    262  73   9  830
1477467233.850:    271  73   9  830
1477467233.850:    271  73   9  830
1477467233.850:    260  73   9  830
1477467233.850:    238  73   9  830
1477467233.850:    207  73   9  830
1477467233.850:    181  73   9  830
1477467233.850:    170  73   9  830
1477467233.851:    171  73   9  830
1477467233.851:    168  73   9  830
1477467233.851:    154  73   9  830
1477467233.851:    136  73   9  830
1477467233.853:    130  73   9  830
1477467233.854:    142  73   9  830
1477467233.854:    165  73   9  830
1477467233.854:    187  73   9  830
1477467233.854:    203  73   9  830
1477467233.854:    214  73   9  830
1477467233.855:    218  73   9  830
1477467233.855:    213  73   9  830
1477467233.855:    200  73   9  830
1477467233.855:    187  73   9  830
1477467233.855:    178  73   9  830
1477467233.856:    172  73   9  830
1477467233.856:    158  73   9  830
1477467233.856:    132  73   9  830
1477467233.857:    106  73   9  830
1477467233.857:     98  73   9  830
1477467233.860:    117  73   9  830
1477467233.860:    152  73   9  830
1477467233.869:    175  73   9  830
1477467233.869:    168  73   9  830
1477467233.872:    139  73   9  830
1477467233.872:    118  73   9  830
1477467233.873:    126  73   9  830
1477467233.874:    155  73   9  830
1477467233.875:    179  73   9  830
1477467233.877:    178  73   9  830
1477467233.878:    159  73   9  830
1477467233.892:    148  73   9  830
1477467233.892:    160  73   9  830
1477467233.893:    185  73   9  830
1477467233.893:    204  73   9  830
1477467233.893:    207  73   9  830
1477467233.893:    205  73   9  830
1477467233.893:    209  73   9  830
1477467233.893:    218  73   9  830
1477467233.901:    225  73   9  830
1477467233.901:    227  73   9  830
1477467233.903:    232  73   9  830
1477467233.910:    237  73   9  830
1477467233.921:    227  73   9  830
1477467233.921:    191  73   9  830
1477467233.921:    142  73   9  830
1477467233.922:    112  73   9  830
1477467233.922:    115  73   9  830
1477467233.922:    135  73   9  830
1477467233.922:    148  73   9  830
