timestamp: ADC HeartRate4sAverage HeartRate30sAverage HRV8sAverage
1477480998.419:  -2200  87  11  689
1477480998.425:  -2166  87  11  689
1477480998.425:  -2114  87  11  689
1477480998.425:  -2068  87  11  689
1477480998.425:  -2049  87  11  689
1477480998.426:  -2057  87  11  689
1477480998.429:  -2067  87  11  689
1477480998.429:  -2065  87  11  689
1477480998.430:  -2074  87  11  689
1477480998.430:  -2115  87  11  689
1477480998.433:  -2175  87  11  689
1477480998.444:  -2207  87  11  689
1477480998.444:  -2184  87  11  689
1477480998.444:  -2138  87  11  689
1477480998.444:  -2122  87  11  689
1477480998.444:  -2147  87  11  689
1477480998.445:  -2169  87  11  689
1477480998.447:  -2144  87  11  689
1477480998.447:  -2068  87  11  689
1477480998.451:  -1973  87  11  689
1477480998.451:  -1898  87  11  689
1477480998.454:  -1854  87  11  689
1477480998.458:  -1839  87  11  689
1477480998.459:  -1836  87  11  689
1477480998.460:  -1814  87  11  689
1477480998.461:  -1752  87  11  689
1477480998.463:  -1667  87  11  689
1477480998.477:  -1617  87  11  689
1477480998.480:  -1638  87  11  689
1477480998.481:  -1700  87  11  689
1477480998.482:  -1722  87  11  689
1477480998.482:  -1656  87  11  689
1477480998.484:  -1538  87  11  689
1477480998.485:  -1452  87  11  689
1477480998.487:  -1437  87  11  689
1477480998.499:  -1456  87  11  689
1477480998.500:  -1448  87  11  689
1477480998.500:  -1411  87  11  689
1477480998.500:  -1393  87  11  689
1477480998.501:  -1426  87  11  689
1477480998.501:  -1488  87  11  689
1477480998.501:  -1531  87  11  689
1477480998.501:  -1539  87  11  689
1477480998.502:  -1537  87  11  689
1477480998.502:  -1542  87  11  689
1477480998.503:  -1552  87  11  689
1477480998.503:  -1551  87  11  689
1477480998.505:  -1537  87  11  689
1477480998.512:  -1516  87  11  689
1477480998.512:  -1493  87  11  689
1477480998.512:  -1475  87  11  689
1477480998.513:  -1481  87  11  689
1477480998.513:  -1522  87  11  689
1477480998.517:  -1568  87  11  689
1477480998.518:  -1574  87  11  689
1477480998.523:  -1528  87  11  689
1477480998.523:  -1475  87  11  689
1477480998.536:  -1460  87  11  689
1477480998.537:  -1476  87  11  689
1477480998.538:  -1468  87  11  689
1477480998.538:  -1414  87  11  689
1477480998.539:  -1359  87  11  689
1477480998.540:  -1358  87  11  689
1477480998.540:  -1395  87  11  689
1477480998.542:  -1398  87  11  689
1477480998.544:  -1334  87  11  689
1477480998.547:  -1258  87  11  689
1477480998.558:  -1246  87  11  689
1477480998.617:  -1300  87  11  689
1477480998.618:  -1353  87  11  689
1477480998.618:  -1354  87  11  689
1477480998.619:  -1330  87  11  689
1477480998.620:  -1337  87  11  689
1477480998.620:  -1392  87  11  689
1477480998.621:  -1462  87  11  689
1477480998.622:  -1516  87  11  689
1477480998.623:  -1559  87  11  689
1477480998.646:  -1600  87  11  689
1477480998.646:  -1623  87  11  689
1477480998.647:  -1605  87  11  689
1477480998.647:  -1551  87  11  689
1477480998.647:  -1500  87  11  689
1477480998.647:  -1470  87  11  689
1477480998.647:  -1451  87  11  689
1477480998.648:  -1433  87  11  689
1477480998.648:  -1434  87  11  689
1477480998.648:  -1469  87  11  689
1477480998.649:  -1511  87  11  689
1477480998.649:  -1521  87  11  689
1477480998.650:  -1500  87  11  689
1477480998.650:  -1502  87  11  689
1477480998.650:  -1562  87  11  689
1477480998.650:  -1640  87  11  689
1477480998.650:  -1653  87  11  689
1477480998.651:  -1577  87  11  689
1477480998.651:  -1470  87  11  689
1477480998.651:  -1403  87  11  689
1477480998.652:  -1391  87  11  689
1477480998.652:  -1392  87  11  689
1477480998.652:  -1374  87  11  689
1477480998.652:  -1345  87  11  689
1477480998.652:  -1312  87  11  689
1477480998.653:  -1266  87  11  689
1477480998.653:  -1207  87  11  689
1477480998.653:  -1181  87  11  689
1477480998.653:  -1231  87  11  689
1477480998.654:  -1325  87  11  689
1477480998.654:  -1367  87  11  689
1477480998.654:  -1315  87  11  689
1477480998.654:  -1246  87  11  689
1477480998.654:  -1271  87  11  689
1477480998.655:  -1399  87  11  689
1477480998.655:  -1517  87  11  689
1477480998.655:  -1524  87  11  689
1477480998.655:  -1437  87  11  689
1477480998.656:  -1346  87  11  689
1477480998.656:  -1264  87  11  689
1477480998.656:  -1126  87  11  689
1477480998.656:   -893  87  11  689
1477480998.656:   -636  87  11  689
1477480998.656:   -461  87  11  689
1477480998.657:   -373  87  11  689
1477480998.657:   -257  87  11  689
1477480998.657:     -2  87  11  689
1477480998.657:    399  87  11  689
1477480998.657:    872  87  11  689
1477480998.660:   1368  87  11  689
1477480998.661:   1888  87  11  689
1477480998.665:   2448  87  11  689
1477480998.676:   3034  87  11  689
1477480998.676:   3619  87  11  689
1477480998.677:   4159  87  11  689
1477480998.677:   4574  87  11  689
1477480998.678:   4742  87  11  689
1477480998.679:   4583  87  11  689
1477480998.679:   4127  87  11  689
1477480998.680:   3484  87  11  689
1477480998.683:   2736  87  11  689
1477480998.683:   1876  87  11  689
1477480998.693:    886  87  11  689
1477480998.693:   -163  87  11  689
1477480998.694:  -1121  87  11  689
1477480998.694:  -1867  87  11  689
1477480998.694:  -2388  87  11  689
1477480998.695:  -2738  87  11  689
1477480998.697:  -2948  87  11  689
1477480998.699:  -3003  87  11  689
1477480998.701:  -2899  87  11  689
1477480998.706:  -2683  87  11  689
1477480998.707:  -2440  87  11  689
1477480998.709:  -2230  87  11  689
1477480998.710:  -2066  87  11  689
1477480998.714:  -1920  87  11  689
1477480998.727:  -1776  87  11  689
1477480998.729:  -1639  87  11  689
1477480998.730:  -1539  87  11  689
1477480998.731:  -1513  87  11  689
1477480998.731:  -1562  87  11  689
1477480998.732:  -1646  87  11  689
1477480998.733:  -1704  87  11  689
1477480998.734:  -1710  87  11  689
1477480998.745:  -1686  87  11  689
1477480998.745:  -1673  87  11  689
1477480998.746:  -1678  87  11  689
1477480998.747:  -1668  87  11  689
1477480998.750:  -1611  87  11  689
1477480998.751:  -1525  87  11  689
1477480998.751:  -1460  87  11  689
1477480998.752:  -1452  87  11  689
1477480998.752:  -1487  87  11  689
1477480998.752:  -1518  87  11  689
1477480998.753:  -1511  87  11  689
1477480998.753:  -1476  87  11  689
1477480998.753:  -1458  87  11  689
1477480998.757:  -1493  87  11  689
1477480998.765:  -1572  87  11  689
1477480998.765:  -1642  87  11  689
1477480998.766:  -1656  87  11  689
1477480998.766:  -1630  87  11  689
1477480998.766:  -1623  87  11  689
1477480998.766:  -1666  87  11  689
1477480998.771:  -1720  87  11  689
1477480998.771:  -1718  87  11  689
1477480998.775:  -1651  87  11  689
1477480998.776:  -1583  87  11  689
1477480998.777:  -1573  87  11  689
1477480998.778:  -1612  87  11  689
1477480998.780:  -1642  87  11  689
1477480998.782:  -1640  87  11  689
1477480998.785:  -1639  87  11  689
1477480998.789:  -1669  87  11  689
1477480998.790:  -1702  87  11  689
1477480998.791:  -1690  87  11  689
1477480998.792:  -1630  87  11  689
1477480998.793:  -1580  87  11  689
1477480998.797:  -1585  87  11  689
1477480998.798:  -1620  87  11  689
1477480998.812:  -1612  87  11  689
1477480998.812:  -1531  87  11  689
1477480998.812:  -1435  87  11  689
1477480998.812:  -1417  87  11  689
1477480998.812:  -1506  87  11  689
1477480998.812:  -1632  87  11  689
1477480998.814:  -1697  87  11  689
1477480998.817:  -1672  87  11  689
1477480998.817:  -1616  87  11  689
1477480998.818:  -1604  87  11  689
1477480998.821:  -1648  87  11  689
1477480998.822:  -1684  87  11  689
1477480998.833:  -1652  87  11  689
1477480998.834:  -1562  87  11  689
1477480998.835:  -1486  87  11  689
1477480998.835:  -1473  87  11  689
1477480998.836:  -1515  87  11  689
1477480998.836:  -1568  87  11  689
1477480998.838:  -1604  87  11  689
1477480998.841:  -1629  87  11  689
1477480998.851:  -1662  87  11  689
1477480998.853:  -1704  87  11  689
1477480998.853:  -1733  87  11  689
1477480998.854:  -1720  87  11  689
1477480998.855:  -1656  87  11  689
1477480998.855:  -1568  87  11  689
1477480998.856:  -1499  87  11  689
1477480998.857:  -1471  87  11  689
1477480998.857:  -1461  87  11  689
1477480998.859:  -1436  87  11  689
1477480998.869:  -1401  87  11  689
1477480998.870:  -1394  87  11  689
1477480998.871:  -1434  87  11  689
1477480998.872:  -1486  87  11  689
1477480998.873:  -1490  87  11  689
1477480998.874:  -1440  87  11  689
1477480998.885:  -1391  87  11  689
1477480998.886:  -1389  87  11  689
1477480998.887:  -1420  87  11  689
1477480998.887:  -1440  87  11  689
1477480998.888:  -1439  87  11  689
1477480998.889:  -1451  87  11  689
1477480998.890:  -1488  87  11  689
1477480998.891:  -1512  87  11  689
1477480998.903:  -1488  87  11  689
1477480998.904:  -1441  87  11  689
1477480998.904:  -1433  87  11  689
1477480998.905:  -1463  87  11  689
1477480998.906:  -1465  87  11  689
1477480998.907:  -1388  87  11  689
1477480998.909:  -1277  87  11  689
1477480998.910:  -1242  87  11  689
1477480998.919:  -1318  87  11  689
1477480998.920:  -1420  87  11  689
1477480998.920:  -1447  87  11  689
1477480998.921:  -1404  87  11  689
1477480998.921:  -1391  87  11  689
1477480998.922:  -1472  87  11  689
1477480998.924:  -1581  88  11  686
1477480998.943:  -1605  88  11  686
1477480998.953:  -1528  88  11  686
1477480998.953:  -1451  88  11  686
1477480998.953:  -1472  88  11  686
1477480998.953:  -1555  88  11  686
1477480998.953:  -1577  88  11  686
1477480998.953:  -1485  88  11  686
1477480998.954:  -1367  88  11  686
1477480998.956:  -1356  88  11  686
1477480998.956:  -1475  88  11  686
1477480998.956:  -1606  88  11  686
1477480998.956:  -1635  88  11  686
1477480998.956:  -1586  88  11  686
1477480998.957:  -1585  88  11  686
1477480998.957:  -1707  88  11  686
1477480998.957:  -1884  88  11  686
1477480998.957:  -1996  88  11  686
1477480998.957:  -2011  88  11  686
1477480998.957:  -2011  88  11  686
1477480998.960:  -2078  88  11  686
1477480998.960:  -2202  88  11  686
1477480998.960:  -2301  88  11  686
1477480998.960:  -2332  88  11  686
1477480998.962:  -2339  88  11  686
1477480998.962:  -2385  88  11  686
1477480998.964:  -2476  88  11  686
1477480998.966:  -2563  88  11  686
1477480998.976:  -2612  88  11  686
1477480998.976:  -2642  88  11  686
1477480998.976:  -2686  88  11  686
1477480998.976:  -2737  88  11  686
1477480998.976:  -2760  88  11  686
1477480998.977:  -2741  88  11  686
1477480998.979:  -2712  88  11  686
1477480998.985:  -2719  88  11  686
1477480998.986:  -2771  88  11  686
1477480998.988:  -2830  88  11  686
1477480998.989:  -2860  88  11  686
1477480998.990:  -2862  88  11  686
1477480998.994:  -2867  88  11  686
1477480998.994:  -2904  88  11  686
1477480998.996:  -2971  88  11  686
1477480998.997:  -3040  88  11  686
1477480998.999:  -3077  88  11  686
1477480999.003:  -3065  88  11  686
1477480999.030:  -3017  88  11  686
1477480999.030:  -2973  88  11  686
1477480999.030:  -2969  88  11  686
1477480999.031:  -3006  88  11  686
1477480999.031:  -3046  88  11  686
1477480999.031:  -3049  88  11  686
1477480999.031:  -3013  88  11  686
1477480999.031:  -2980  88  11  686
1477480999.032:  -2992  88  11  686
1477480999.032:  -3046  88  11  686
1477480999.032:  -3095  88  11  686
1477480999.033:  -3105  88  11  686
1477480999.033:  -3088  88  11  686
1477480999.034:  -3075  88  11  686
1477480999.034:  -3072  88  11  686
1477480999.035:  -3050  88  11  686
1477480999.035:  -2992  88  11  686
1477480999.039:  -2922  88  11  686
1477480999.039:  -2881  88  11  686
1477480999.041:  -2876  88  11  686
1477480999.042:  -2881  88  11  686
1477480999.043:  -2872  88  11  686
1477480999.046:  -2853  88  11  686
1477480999.049:  -2845  88  11  686
1477480999.064:  -2854  88  11  686
1477480999.064:  -2865  88  11  686
1477480999.065:  -2870  88  11  686
1477480999.065:  -2872  88  11  686
1477480999.068:  -2862  88  11  686
1477480999.069:  -2827  88  11  686
1477480999.070:  -2765  88  11  686
1477480999.070:  -2716  88  11  686
1477480999.071:  -2729  88  11  686
1477480999.072:  -2806  88  11  686
1477480999.085:  -2886  88  11  686
1477480999.086:  -2891  88  11  686
1477480999.087:  -2802  88  11  686
1477480999.088:  -2678  88  11  686
1477480999.089:  -2605  88  11  686
1477480999.090:  -2615  88  11  686
1477480999.090:  -2656  88  11  686
1477480999.091:  -2649  88  11  686
1477480999.095:  -2569  88  11  686
1477480999.096:  -2470  88  11  686
1477480999.107:  -2435  88  11  686
1477480999.108:  -2491  88  11  686
1477480999.110:  -2588  88  11  686
1477480999.110:  -2660  88  11  686
1477480999.111:  -2681  88  11  686
1477480999.112:  -2678  88  11  686
1477480999.112:  -2679  88  11  686
1477480999.113:  -2681  88  11  686
1477480999.115:  -2667  88  11  686
1477480999.115:  -2633  88  11  686
1477480999.116:  -2604  88  11  686
1477480999.118:  -2592  88  11  686
1477480999.130:  -2577  88  11  686
1477480999.131:  -2536  88  11  686
1477480999.132:  -2466  88  11  686
1477480999.134:  -2407  88  11  686
1477480999.135:  -2404  88  11  686
1477480999.136:  -2461  88  11  686
1477480999.137:  -2535  88  11  686
1477480999.137:  -2566  88  11  686
1477480999.138:  -2533  88  11  686
1477480999.138:  -2474  88  11  686
1477480999.138:  -2436  88  11  686
1477480999.139:  -2426  88  11  686
1477480999.139:  -2410  88  11  686
1477480999.140:  -2363  88  11  686
1477480999.152:  -2308  88  11  686
1477480999.153:  -2282  88  11  686
1477480999.153:  -2283  88  11  686
1477480999.153:  -2259  88  11  686
1477480999.153:  -2185  88  11  686
1477480999.153:  -2101  88  11  686
1477480999.155:  -2074  88  11  686
1477480999.155:  -2116  88  11  686
1477480999.158:  -2172  88  11  686
1477480999.158:  -2177  88  11  686
1477480999.159:  -2133  88  11  686
1477480999.163:  -2087  88  11  686
1477480999.163:  -2066  88  11  686
1477480999.168:  -2054  88  11  686
1477480999.176:  -2028  88  11  686
1477480999.176:  -2003  88  11  686
1477480999.177:  -2003  88  11  686
1477480999.177:  -2017  88  11  686
1477480999.177:  -2002  88  11  686
1477480999.178:  -1940  88  11  686
1477480999.182:  -1881  88  11  686
1477480999.182:  -1888  88  11  686
1477480999.183:  -1965  88  11  686
1477480999.186:  -2039  88  11  686
1477480999.197:  -2040  88  11  686
1477480999.197:  -1973  88  11  686
1477480999.197:  -1908  88  11  686
1477480999.214:  -1897  88  11  686
1477480999.215:  -1924  88  11  686
1477480999.217:  -1944  88  11  686
1477480999.218:  -1936  88  11  686
1477480999.219:  -1916  88  11  686
1477480999.219:  -1899  88  11  686
1477480999.219:  -1880  88  11  686
1477480999.220:  -1855  88  11  686
1477480999.222:  -1836  88  11  686
1477480999.222:  -1841  88  11  686
1477480999.222:  -1868  88  11  686
1477480999.223:  -1893  88  11  686
1477480999.223:  -1905  88  11  686
1477480999.223:  -1909  88  11  686
1477480999.223:  -1907  88  11  686
1477480999.315:  -1888  88  11  686
1477480999.315:  -1841  88  11  686
1477480999.315:  -1793  88  11  686
1477480999.315:  -1785  88  11  686
1477480999.315:  -1835  88  11  686
1477480999.316:  -1905  88  11  686
1477480999.316:  -1936  88  11  686
1477480999.316:  -1912  88  11  686
1477480999.316:  -1887  88  11  686
1477480999.316:  -1930  88  11  686
1477480999.317:  -2048  88  11  686
1477480999.317:  -2164  88  11  686
1477480999.317:  -2184  88  11  686
1477480999.317:  -2098  88  11  686
1477480999.317:  -1996  88  11  686
1477480999.318:  -1980  88  11  686
1477480999.318:  -2056  88  11  686
1477480999.318:  -2129  88  11  686
1477480999.319:  -2114  88  11  686
1477480999.319:  -2035  88  11  686
1477480999.319:  -2001  88  11  686
1477480999.319:  -2070  88  11  686
1477480999.319:  -2181  88  11  686
1477480999.320:  -2223  88  11  686
1477480999.320:  -2162  88  11  686
1477480999.320:  -2072  88  11  686
1477480999.321:  -2041  88  11  686
1477480999.321:  -2073  88  11  686
1477480999.321:  -2094  88  11  686
1477480999.321:  -2050  88  11  686
1477480999.321:  -1974  88  11  686
1477480999.321:  -1935  88  11  686
1477480999.322:  -1959  88  11  686
1477480999.322:  -2005  88  11  686
1477480999.322:  -2020  88  11  686
1477480999.322:  -1997  88  11  686
1477480999.322:  -1977  88  11  686
1477480999.322:  -1995  88  11  686
1477480999.322:  -2043  88  11  686
1477480999.323:  -2077  88  11  686
1477480999.323:  -2076  88  11  686
1477480999.323:  -2058  88  11  686
1477480999.323:  -2053  88  11  686
1477480999.324:  -2065  88  11  686
1477480999.324:  -2072  88  11  686
1477480999.324:  -2071  88  11  686
1477480999.324:  -2085  88  11  686
1477480999.324:  -2123  88  11  686
1477480999.324:  -2144  88  11  686
1477480999.325:  -2097  88  11  686
1477480999.325:  -1997  88  11  686
1477480999.325:  -1902  88  11  686
1477480999.325:  -1825  88  11  686
1477480999.330:  -1680  88  11  686
1477480999.362:  -1386  88  11  686
1477480999.363:  -1012  88  11  686
1477480999.363:   -755  88  11  686
1477480999.363:   -747  88  11  686
1477480999.363:   -904  88  11  686
1477480999.365:  -1011  88  11  686
1477480999.365:   -940  88  11  686
1477480999.367:   -752  88  11  686
1477480999.377:   -568  88  11  686
1477480999.377:   -400  88  11  686
1477480999.387:   -164  88  11  686
1477480999.388:    181  88  11  686
1477480999.388:    581  88  11  686
1477480999.388:    960  88  11  686
1477480999.388:   1286  88  11  686
1477480999.388:   1526  88  11  686
1477480999.388:   1582  88  11  686
1477480999.389:   1344  88  11  686
1477480999.389:    797  88  11  686
1477480999.389:     58  88  11  686
1477480999.389:   -736  88  11  686
1477480999.390:  -1521  88  11  686
1477480999.390:  -2294  88  11  686
1477480999.390:  -3017  88  11  686
1477480999.390:  -3605  88  11  686
1477480999.391:  -3998  88  11  686
1477480999.391:  -4197  88  11  686
1477480999.392:  -4228  88  11  686
1477480999.394:  -4095  88  11  686
1477480999.394:  -3810  88  11  686
1477480999.397:  -3450  88  11  686
1477480999.399:  -3140  88  11  686
1477480999.400:  -2951  88  11  686
1477480999.401:  -2838  88  11  686
1477480999.412:  -2713  88  11  686
1477480999.413:  -2551  88  11  686
1477480999.413:  -2406  88  11  686
1477480999.413:  -2333  88  11  686
1477480999.413:  -2321  88  11  686
1477480999.413:  -2310  88  11  686
1477480999.413:  -2277  88  11  686
1477480999.413:  -2259  88  11  686
1477480999.414:  -2293  88  11  686
1477480999.414:  -2363  88  11  686
1477480999.415:  -2407  88  11  686
1477480999.417:  -2392  88  11  686
1477480999.419:  -2340  88  11  686
1477480999.421:  -2293  88  11  686
1477480999.422:  -2262  88  11  686
1477480999.425:  -2240  88  11  686
1477480999.427:  -2224  88  11  686
1477480999.429:  -2222  88  11  686
1477480999.432:  -2226  88  11  686
1477480999.432:  -2202  88  11  686
1477480999.439:  -2133  88  11  686
1477480999.440:  -2049  88  11  686
1477480999.451:  -2018  88  11  686
1477480999.451:  -2077  88  11  686
1477480999.451:  -2180  88  11  686
1477480999.452:  -2239  88  11  686
1477480999.452:  -2217  88  11  686
1477480999.453:  -2162  88  11  686
1477480999.454:  -2147  88  11  686
1477480999.457:  -2192  88  11  686
1477480999.457:  -2241  88  11  686
1477480999.459:  -2236  88  11  686
1477480999.460:  -2181  88  11  686
1477480999.460:  -2133  88  11  686
1477480999.462:  -2142  88  11  686
1477480999.463:  -2201  88  11  686
1477480999.470:  -2274  88  11  686
1477480999.471:  -2335  88  11  686
1477480999.491:  -2386  88  11  686
1477480999.492:  -2434  88  11  686
1477480999.493:  -2473  88  11  686
1477480999.494:  -2485  88  11  686
1477480999.495:  -2460  88  11  686
1477480999.496:  -2407  88  11  686
1477480999.496:  -2343  88  11  686
1477480999.497:  -2272  88  11  686
1477480999.497:  -2192  88  11  686
1477480999.498:  -2110  88  11  686
1477480999.499:  -2043  88  11  686
1477480999.499:  -2011  88  11  686
1477480999.499:  -2029  88  11  686
1477480999.499:  -2085  88  11  686
1477480999.500:  -2153  88  11  686
1477480999.500:  -2212  88  11  686
1477480999.502:  -2265  88  11  686
1477480999.503:  -2323  88  11  686
1477480999.512:  -2380  88  11  686
1477480999.512:  -2412  88  11  686
1477480999.512:  -2405  88  11  686
1477480999.514:  -2377  88  11  686
1477480999.515:  -2358  88  11  686
1477480999.518:  -2357  88  11  686
1477480999.519:  -2345  88  11  686
1477480999.519:  -2291  88  11  686
1477480999.521:  -2214  88  11  686
1477480999.524:  -2167  88  11  686
1477480999.540:  -2186  88  11  686
1477480999.540:  -2250  88  11  686
1477480999.540:  -2300  88  11  686
1477480999.540:  -2297  88  11  686
1477480999.541:  -2255  88  11  686
1477480999.541:  -2219  88  11  686
1477480999.541:  -2216  88  11  686
1477480999.542:  -2231  88  11  686
1477480999.542:  -2237  88  11  686
1477480999.544:  -2228  88  11  686
1477480999.545:  -2219  88  11  686
1477480999.546:  -2221  88  11  686
1477480999.549:  -2221  88  11  686
1477480999.551:  -2204  88  11  686
1477480999.555:  -2187  88  11  686
1477480999.556:  -2199  88  11  686
1477480999.557:  -2239  88  11  686
1477480999.559:  -2261  88  11  686
1477480999.560:  -2224  88  11  686
1477480999.563:  -2156  88  11  686
1477480999.579:  -2125  88  11  686
1477480999.580:  -2158  88  11  686
1477480999.580:  -2201  88  11  686
1477480999.581:  -2187  88  11  686
1477480999.581:  -2119  88  11  686
1477480999.581:  -2071  88  11  686
1477480999.582:  -2088  88  11  686
1477480999.582:  -2127  88  11  686
1477480999.585:  -2111  88  11  686
1477480999.585:  -2036  88  11  686
1477480999.585:  -1979  88  11  686
1477480999.586:  -2013  88  11  686
1477480999.597:  -2111  88  11  686
1477480999.597:  -2178  88  11  686
1477480999.598:  -2166  88  11  686
1477480999.598:  -2126  88  11  686
1477480999.599:  -2148  87  11  684
1477480999.600:  -2255  87  11  684
1477480999.604:  -2386  87  11  684
1477480999.604:  -2464  87  11  684
1477480999.605:  -2477  87  11  684
1477480999.607:  -2479  87  11  684
1477480999.618:  -2525  87  11  684
1477480999.618:  -2616  87  11  684
1477480999.619:  -2711  87  11  684
1477480999.619:  -2775  87  11  684
1477480999.619:  -2815  87  11  684
1477480999.619:  -2858  87  11  684
1477480999.619:  -2917  87  11  684
1477480999.623:  -2983  87  11  684
1477480999.626:  -3044  87  11  684
1477480999.627:  -3104  87  11  684
1477480999.638:  -3168  87  11  684
1477480999.638:  -3242  87  11  684
1477480999.639:  -3319  87  11  684
1477480999.639:  -3396  87  11  684
1477480999.639:  -3474  87  11  684
1477480999.639:  -3552  87  11  684
1477480999.640:  -3622  87  11  684
1477480999.643:  -3688  87  11  684
1477480999.643:  -3762  87  11  684
1477480999.644:  -3859  87  11  684
1477480999.646:  -3968  87  11  684
1477480999.650:  -4059  87  11  684
1477480999.657:  -4113  87  11  684
1477480999.657:  -4149  87  11  684
1477480999.659:  -4206  87  11  684
1477480999.659:  -4296  87  11  684
1477480999.659:  -4385  87  11  684
1477480999.661:  -4430  87  11  684
1477480999.662:  -4424  87  11  684
1477480999.663:  -4405  87  11  684
1477480999.666:  -4408  87  11  684
1477480999.671:  -4427  87  11  684
1477480999.671:  -4432  87  11  684
1477480999.674:  -4417  87  11  684
1477480999.675:  -4405  87  11  684
1477480999.677:  -4419  87  11  684
1477480999.690:  -4445  87  11  684
1477480999.691:  -4455  87  11  684
1477480999.691:  -4453  87  11  684
1477480999.691:  -4474  87  11  684
1477480999.691:  -4542  87  11  684
1477480999.691:  -4636  87  11  684
1477480999.691:  -4711  87  11  684
1477480999.691:  -4743  87  11  684
1477480999.697:  -4745  87  11  684
1477480999.698:  -4736  87  11  684
1477480999.699:  -4719  87  11  684
1477480999.700:  -4691  87  11  684
1477480999.703:  -4652  87  11  684
1477480999.703:  -4611  87  11  684
1477480999.705:  -4576  87  11  684
1477480999.707:  -4542  87  11  684
1477480999.715:  -4506  87  11  684
1477480999.715:  -4488  87  11  684
1477480999.716:  -4510  87  11  684
1477480999.716:  -4565  87  11  684
1477480999.718:  -4611  87  11  684
1477480999.720:  -4605  87  11  684
1477480999.726:  -4552  87  11  684
1477480999.726:  -4502  87  11  684
1477480999.734:  -4490  87  11  684
1477480999.734:  -4500  87  11  684
1477480999.734:  -4473  87  11  684
1477480999.735:  -4389  87  11  684
1477480999.735:  -4284  87  11  684
1477480999.738:  -4212  87  11  684
1477480999.738:  -4187  87  11  684
1477480999.740:  -4175  87  11  684
1477480999.743:  -4154  87  11  684
1477480999.744:  -4139  87  11  684
1477480999.749:  -4141  87  11  684
1477480999.751:  -4140  87  11  684
1477480999.752:  -4095  87  11  684
1477480999.752:  -4014  87  11  684
1477480999.754:  -3950  87  11  684
1477480999.755:  -3939  87  11  684
1477480999.756:  -3950  87  11  684
1477480999.759:  -3919  87  11  684
1477480999.773:  -3841  87  11  684
1477480999.774:  -3781  87  11  684
1477480999.777:  -3797  87  11  684
1477480999.779:  -3864  87  11  684
1477480999.779:  -3895  87  11  684
1477480999.781:  -3842  87  11  684
1477480999.782:  -3743  87  11  684
1477480999.784:  -3675  87  11  684
1477480999.796:  -3669  87  11  684
1477480999.798:  -3678  87  11  684
1477480999.799:  -3647  87  11  684
1477480999.800:  -3567  87  11  684
1477480999.801:  -3491  87  11  684
1477480999.803:  -3462  87  11  684
1477480999.803:  -3475  87  11  684
1477480999.804:  -3485  87  11  684
1477480999.815:  -3459  87  11  684
1477480999.816:  -3407  87  11  684
1477480999.816:  -3359  87  11  684
1477480999.818:  -3330  87  11  684
1477480999.818:  -3307  87  11  684
1477480999.818:  -3283  87  11  684
1477480999.819:  -3261  87  11  684
1477480999.819:  -3244  87  11  684
1477480999.819:  -3217  87  11  684
1477480999.819:  -3163  87  11  684
1477480999.820:  -3107  87  11  684
1477480999.820:  -3093  87  11  684
1477480999.820:  -3138  87  11  684
1477480999.821:  -3199  87  11  684
1477480999.821:  -3213  87  11  684
1477480999.823:  -3169  87  11  684
1477480999.824:  -3107  87  11  684
1477480999.825:  -3066  87  11  684
1477480999.839:  -3030  87  11  684
1477480999.840:  -2962  87  11  684
1477480999.841:  -2855  87  11  684
1477480999.842:  -2748  87  11  684
1477480999.853:  -2677  87  11  684
1477480999.853:  -2637  87  11  684
1477480999.854:  -2601  87  11  684
1477480999.854:  -2564  87  11  684
1477480999.854:  -2540  87  11  684
1477480999.854:  -2535  87  11  684
1477480999.854:  -2535  87  11  684
1477480999.854:  -2525  87  11  684
1477480999.854:  -2502  87  11  684
1477480999.854:  -2471  87  11  684
1477480999.855:  -2429  87  11  684
1477480999.857:  -2376  87  11  684
1477480999.859:  -2325  87  11  684
1477480999.861:  -2296  87  11  684
1477480999.862:  -2280  87  11  684
1477480999.867:  -2249  87  11  684
1477480999.875:  -2198  87  11  684
1477480999.875:  -2155  87  11  684
1477480999.875:  -2150  87  11  684
1477480999.875:  -2175  87  11  684
1477480999.875:  -2192  87  11  684
1477480999.877:  -2179  87  11  684
1477480999.881:  -2157  87  11  684
1477480999.881:  -2156  87  11  684
1477480999.883:  -2172  87  11  684
1477480999.884:  -2171  87  11  684
1477480999.896:  -2126  87  11  684
1477480999.897:  -2051  87  11  684
1477480999.897:  -1991  87  11  684
1477480999.898:  -1969  87  11  684
1477481000.003:  -1972  87  11  684
1477481000.003:  -1958  87  11  684
1477481000.003:  -1915  87  11  684
1477481000.003:  -1857  87  11  684
1477481000.003:  -1823  87  11  684
1477481000.003:  -1829  87  11  684
1477481000.004:  -1859  87  11  684
1477481000.004:  -1892  87  11  684
1477481000.004:  -1930  87  11  684
1477481000.004:  -1974  87  11  684
1477481000.004:  -2001  87  11  684
1477481000.004:  -1978  87  11  684
1477481000.004:  -1909  87  11  684
1477481000.004:  -1848  87  11  684
1477481000.006:  -1840  87  11  684
1477481000.006:  -1862  87  11  684
1477481000.006:  -1850  87  11  684
1477481000.006:  -1785  87  11  684
1477481000.006:  -1725  87  11  684
1477481000.006:  -1737  87  11  684
1477481000.006:  -1804  87  11  684
1477481000.007:  -1854  87  11  684
1477481000.007:  -1843  87  11  684
1477481000.007:  -1799  87  11  684
1477481000.007:  -1775  87  11  684
1477481000.007:  -1775  87  11  684
1477481000.008:  -1757  87  11  684
1477481000.008:  -1708  87  11  684
1477481000.008:  -1660  87  11  684
1477481000.008:  -1645  87  11  684
1477481000.008:  -1655  87  11  684
1477481000.008:  -1660  87  11  684
1477481000.008:  -1657  87  11  684
1477481000.009:  -1667  87  11  684
1477481000.009:  -1699  87  11  684
1477481000.009:  -1716  87  11  684
1477481000.009:  -1688  87  11  684
1477481000.009:  -1629  87  11  684
1477481000.009:  -1588  87  11  684
1477481000.009:  -1594  87  11  684
1477481000.009:  -1630  87  11  684
1477481000.010:  -1651  87  11  684
1477481000.010:  -1625  87  11  684
1477481000.010:  -1565  87  11  684
1477481000.010:  -1511  87  11  684
1477481000.010:  -1505  87  11  684
1477481000.010:  -1552  87  11  684
1477481000.011:  -1602  87  11  684
1477481000.011:  -1588  87  11  684
1477481000.011:  -1500  87  11  684
1477481000.011:  -1400  87  11  684
1477481000.011:  -1357  87  11  684
1477481000.012:  -1373  87  11  684
1477481000.012:  -1395  87  11  684
1477481000.012:  -1386  87  11  684
1477481000.012:  -1381  87  11  684
1477481000.013:  -1425  87  11  684
1477481000.013:  -1499  87  11  684
1477481000.013:  -1540  87  11  684
1477481000.013:  -1506  87  11  684
1477481000.013:  -1402  87  11  684
1477481000.017:  -1240  87  11  684
1477481000.018:  -1014  87  11  684
1477481000.020:   -739  87  11  684
1477481000.021:   -476  87  11  684
1477481000.022:   -299  87  11  684
1477481000.023:   -202  87  11  684
1477481000.026:    -89  87  11  684
1477481000.036:    137  87  11  684
1477481000.036:    479  87  11  684
1477481000.036:    884  87  11  684
1477481000.037:   1323  87  11  684
1477481000.038:   1817  87  11  684
1477481000.038:   2391  87  11  684
1477481000.040:   3016  87  11  684
1477481000.044:   3635  87  11  684
1477481000.044:   4177  87  11  684
1477481000.046:   4554  87  11  684
1477481000.047:   4655  87  11  684
1477481000.048:   4410  87  11  684
1477481000.051:   3863  87  11  684
1477481000.053:   3141  87  11  684
1477481000.057:   2336  87  11  684
1477481000.058:   1428  87  11  684
1477481000.086:    371  87  11  684
1477481000.086:   -769  87  11  684
1477481000.086:  -1785  87  11  684
1477481000.086:  -2494  87  11  684
1477481000.086:  -2887  87  11  684
1477481000.086:  -3095  87  11  684
1477481000.087:  -3238  87  11  684
1477481000.087:  -3309  87  11  684
1477481000.087:  -3228  87  11  684
1477481000.087:  -2980  87  11  684
1477481000.087:  -2670  87  11  684
1477481000.088:  -2425  87  11  684
1477481000.088:  -2287  87  11  684
1477481000.088:  -2201  87  11  684
1477481000.089:  -2110  87  11  684
1477481000.089:  -2019  87  11  684
1477481000.089:  -1960  87  11  684
1477481000.095:  -1933  87  11  684
1477481000.095:  -1897  87  11  684
1477481000.099:  -1835  87  11  684
1477481000.109:  -1791  87  11  684
1477481000.109:  -1804  87  11  684
1477481000.109:  -1836  87  11  684
1477481000.109:  -1798  87  11  684
1477481000.110:  -1655  87  11  684
1477481000.110:  -1480  87  11  684
1477481000.113:  -1388  87  11  684
1477481000.113:  -1412  87  11  684
1477481000.114:  -1480  87  11  684
1477481000.116:  -1503  87  11  684
1477481000.117:  -1465  87  11  684
1477481000.120:  -1428  87  11  684
1477481000.122:  -1427  87  11  684
1477481000.123:  -1438  87  11  684
1477481000.137:  -1418  87  11  684
1477481000.138:  -1380  87  11  684
1477481000.139:  -1378  87  11  684
1477481000.139:  -1434  87  11  684
1477481000.141:  -1498  87  11  684
1477481000.141:  -1499  87  11  684
1477481000.142:  -1423  87  11  684
1477481000.144:  -1333  87  11  684
1477481000.157:  -1301  87  11  684
1477481000.157:  -1320  87  11  684
1477481000.158:  -1320  87  11  684
1477481000.159:  -1248  87  11  684
1477481000.159:  -1138  87  11  684
1477481000.160:  -1068  87  11  684
1477481000.160:  -1078  87  11  684
1477481000.161:  -1126  87  11  684
1477481000.161:  -1149  87  11  684
1477481000.162:  -1135  87  11  684
1477481000.162:  -1132  87  11  684
1477481000.163:  -1175  87  11  684
1477481000.165:  -1229  87  11  684
1477481000.167:  -1225  87  11  684
1477481000.175:  -1144  87  11  684
1477481000.175:  -1041  87  11  684
1477481000.176:   -991  87  11  684
1477481000.177:  -1007  87  11  684
1477481000.179:  -1039  87  11  684
1477481000.179:  -1022  87  11  684
1477481000.181:   -940  87  11  684
1477481000.182:   -842  87  11  684
1477481000.188:   -797  87  11  684
1477481000.189:   -839  87  11  684
1477481000.195:   -928  87  11  684
1477481000.195:   -983  87  11  684
1477481000.195:   -948  87  11  684
1477481000.195:   -858  87  11  684
1477481000.222:   -800  87  11  684
1477481000.223:   -826  87  11  684
1477481000.233:   -891  87  11  684
1477481000.233:   -908  87  11  684
1477481000.233:   -858  87  11  684
1477481000.233:   -814  87  11  684
1477481000.233:   -838  87  11  684
1477481000.233:   -895  87  11  684
1477481000.234:   -892  87  11  684
1477481000.234:   -793  87  11  684
1477481000.234:   -675  87  11  684
1477481000.234:   -637  87  11  684
1477481000.234:   -681  87  11  684
1477481000.235:   -711  87  11  684
1477481000.235:   -648  87  11  684
1477481000.235:   -511  87  11  684
1477481000.235:   -396  87  11  684
1477481000.235:   -374  87  11  684
1477481000.235:   -430  87  11  684
1477481000.236:   -500  87  11  684
1477481000.237:   -524  87  11  684
1477481000.240:   -484  87  11  684
1477481000.241:   -410  87  11  684
1477481000.242:   -348  87  11  684
1477481000.245:   -321  87  11  684
1477481000.245:   -320  87  11  684
1477481000.255:   -306  87  11  684
1477481000.255:   -258  87  11  684
1477481000.256:   -194  87  11  684
1477481000.256:   -148  87  11  684
1477481000.256:   -135  87  11  684
1477481000.257:   -141  87  11  684
1477481000.259:   -155  87  11  684
1477481000.264:   -177  87  11  684
1477481000.276:   -210  87  11  684
1477481000.277:   -248  87  11  684
1477481000.277:   -275  87  11  684
1477481000.278:   -287  87  11  684
1477481000.279:   -279  87  11  684
1477481000.280:   -244  87  11  684
1477481000.280:   -181  87  11  684
1477481000.281:   -110  87  11  684
1477481000.282:    -71  87  11  684
1477481000.284:    -84  87  11  684
1477481000.284:   -122  87  11  684
1477481000.284:   -129  87  11  684
1477481000.287:    -87  87  11  684
1477481000.288:    -38  87  11  684
1477481000.297:    -49  87  11  684
1477481000.298:   -140  87  11  684
1477481000.298:   -258  87  11  684
1477481000.299:   -320  87  11  684
1477481000.299:   -286  87  11  684
1477481000.302:   -198  87  11  684
1477481000.302:   -144  87  11  684
1477481000.305:   -173  87  11  684
1477481000.316:   -246  87  11  684
1477481000.318:   -281  86  11  690
1477481000.318:   -244  86  11  690
1477481000.319:   -182  86  11  690
1477481000.319:   -169  86  11  690
1477481000.319:   -230  86  11  690
1477481000.319:   -312  86  11  690
1477481000.323:   -363  86  11  690
1477481000.323:   -383  86  11  690
1477481000.325:   -420  86  11  690
1477481000.334:   -498  86  11  690
1477481000.334:   -599  86  11  690
1477481000.334:   -701  86  11  690
1477481000.334:   -802  86  11  690
1477481000.367:   -917  86  11  690
1477481000.367:  -1038  86  11  690
1477481000.367:  -1129  86  11  690
1477481000.368:  -1171  86  11  690
1477481000.368:  -1190  86  11  690
1477481000.369:  -1227  86  11  690
1477481000.369:  -1295  86  11  690
1477481000.370:  -1361  86  11  690
1477481000.371:  -1375  86  11  690
1477481000.374:  -1329  86  11  690
1477481000.374:  -1271  86  11  690
1477481000.374:  -1269  86  11  690
1477481000.374:  -1348  86  11  690
1477481000.375:  -1461  86  11  690
1477481000.375:  -1538  86  11  690
1477481000.378:  -1543  86  11  690
1477481000.379:  -1515  86  11  690
1477481000.379:  -1528  86  11  690
1477481000.394:  -1616  86  11  690
1477481000.394:  -1738  86  11  690
1477481000.395:  -1813  86  11  690
1477481000.395:  -1797  86  11  690
1477481000.395:  -1722  86  11  690
1477481000.395:  -1656  86  11  690
1477481000.395:  -1643  86  11  690
1477481000.395:  -1657  86  11  690
1477481000.395:  -1651  86  11  690
1477481000.396:  -1604  86  11  690
1477481000.396:  -1549  86  11  690
1477481000.396:  -1527  86  11  690
1477481000.396:  -1553  86  11  690
1477481000.397:  -1604  86  11  690
1477481000.398:  -1646  86  11  690
1477481000.399:  -1671  86  11  690
1477481000.401:  -1691  86  11  690
1477481000.402:  -1722  86  11  690
1477481000.405:  -1753  86  11  690
1477481000.406:  -1760  86  11  690
1477481000.418:  -1728  86  11  690
1477481000.419:  -1665  86  11  690
1477481000.420:  -1604  86  11  690
1477481000.420:  -1567  86  11  690
1477481000.420:  -1551  86  11  690
1477481000.421:  -1537  86  11  690
1477481000.421:  -1509  86  11  690
1477481000.424:  -1482  86  11  690
1477481000.426:  -1478  86  11  690
1477481000.427:  -1509  86  11  690
1477481000.438:  -1550  86  11  690
1477481000.438:  -1569  86  11  690
1477481000.438:  -1558  86  11  690
1477481000.438:  -1546  86  11  690
1477481000.439:  -1562  86  11  690
1477481000.439:  -1600  86  11  690
1477481000.440:  -1628  86  11  690
1477481000.442:  -1631  86  11  690
1477481000.445:  -1630  86  11  690
1477481000.447:  -1653  86  11  690
1477481000.448:  -1693  86  11  690
1477481000.452:  -1714  86  11  690
1477481000.452:  -1703  86  11  690
1477481000.454:  -1682  86  11  690
1477481000.457:  -1681  86  11  690
1477481000.459:  -1686  86  11  690
1477481000.460:  -1660  86  11  690
1477481000.466:  -1599  86  11  690
1477481000.472:  -1541  86  11  690
1477481000.473:  -1530  86  11  690
1477481000.474:  -1559  86  11  690
1477481000.474:  -1584  86  11  690
1477481000.478:  -1585  86  11  690
1477481000.478:  -1588  86  11  690
1477481000.478:  -1623  86  11  690
1477481000.478:  -1679  86  11  690
1477481000.479:  -1707  86  11  690
1477481000.482:  -1694  86  11  690
1477481000.509:  -1673  86  11  690
1477481000.510:  -1677  86  11  690
1477481000.510:  -1690  86  11  690
1477481000.511:  -1669  86  11  690
1477481000.512:  -1608  86  11  690
1477481000.512:  -1561  86  11  690
1477481000.513:  -1579  86  11  690
1477481000.514:  -1658  86  11  690
1477481000.515:  -1745  86  11  690
1477481000.515:  -1799  86  11  690
1477481000.517:  -1822  86  11  690
1477481000.519:  -1820  86  11  690
1477481000.519:  -1779  86  11  690
1477481000.519:  -1689  86  11  690
1477481000.532:  -1578  86  11  690
1477481000.537:  -1494  86  11  690
1477481000.538:  -1439  86  11  690
1477481000.539:  -1360  86  11  690
1477481000.539:  -1221  86  11  690
1477481000.540:  -1080  86  11  690
1477481000.550:  -1040  86  11  690
1477481000.551:  -1141  86  11  690
1477481000.552:  -1301  86  11  690
1477481000.553:  -1397  86  11  690
1477481000.554:  -1391  86  11  690
1477481000.555:  -1355  86  11  690
1477481000.556:  -1364  86  11  690
1477481000.557:  -1405  86  11  690
1477481000.558:  -1408  86  11  690
1477481000.559:  -1341  86  11  690
1477481000.559:  -1256  86  11  690
1477481000.560:  -1214  86  11  690
1477481000.561:  -1210  86  11  690
1477481000.561:  -1194  86  11  690
1477481000.561:  -1149  86  11  690
1477481000.562:  -1122  86  11  690
1477481000.563:  -1148  86  11  690
1477481000.563:  -1204  86  11  690
1477481000.563:  -1233  86  11  690
1477481000.563:  -1223  86  11  690
1477481000.564:  -1218  86  11  690
1477481000.564:  -1253  86  11  690
1477481000.565:  -1304  86  11  690
1477481000.567:  -1324  86  11  690
1477481000.570:  -1314  86  11  690
1477481000.574:  -1314  86  11  690
1477481000.575:  -1332  86  11  690
1477481000.576:  -1323  86  11  690
1477481000.590:  -1260  86  11  690
1477481000.590:  -1189  86  11  690
1477481000.591:  -1180  86  11  690
1477481000.591:  -1227  86  11  690
1477481000.591:  -1247  86  11  690
1477481000.591:  -1196  86  11  690
1477481000.591:  -1136  86  11  690
1477481000.591:  -1162  86  11  690
1477481000.593:  -1272  86  11  690
1477481000.595:  -1357  86  11  690
1477481000.598:  -1334  86  11  690
1477481000.602:  -1248  86  11  690
1477481000.610:  -1208  86  11  690
1477481000.610:  -1260  86  11  690
1477481000.611:  -1337  86  11  690
1477481000.611:  -1358  86  11  690
1477481000.611:  -1318  86  11  690
1477481000.611:  -1285  86  11  690
1477481000.616:  -1311  86  11  690
1477481000.616:  -1376  86  11  690
1477481000.618:  -1429  86  11  690
1477481000.682:  -1440  86  11  690
1477481000.682:  -1418  86  11  690
1477481000.685:  -1391  86  11  690
1477481000.685:  -1385  86  11  690
1477481000.685:  -1411  86  11  690
1477481000.686:  -1455  86  11  690
1477481000.686:  -1479  86  11  690
1477481000.686:  -1456  86  11  690
1477481000.686:  -1400  86  11  690
1477481000.686:  -1373  86  11  690
1477481000.687:  -1420  86  11  690
1477481000.687:  -1517  86  11  690
1477481000.688:  -1581  86  11  690
1477481000.688:  -1561  86  11  690
1477481000.688:  -1490  86  11  690
1477481000.688:  -1449  86  11  690
1477481000.689:  -1475  86  11  690
1477481000.689:  -1532  86  11  690
1477481000.689:  -1557  86  11  690
1477481000.689:  -1528  86  11  690
1477481000.689:  -1473  86  11  690
1477481000.690:  -1433  86  11  690
1477481000.690:  -1421  86  11  690
1477481000.690:  -1432  86  11  690
1477481000.690:  -1469  86  11  690
1477481000.692:  -1527  86  11  690
1477481000.693:  -1583  86  11  690
1477481000.693:  -1589  86  11  690
1477481000.693:  -1538  86  11  690
1477481000.693:  -1479  86  11  690
1477481000.694:  -1477  86  11  690
1477481000.694:  -1533  86  11  690
1477481000.694:  -1592  86  11  690
1477481000.694:  -1603  86  11  690
1477481000.694:  -1579  86  11  690
1477481000.695:  -1580  86  11  690
1477481000.695:  -1631  86  11  690
1477481000.695:  -1689  86  11  690
1477481000.695:  -1695  86  11  690
1477481000.696:  -1632  86  11  690
1477481000.697:  -1520  86  11  690
1477481000.698:  -1361  86  11  690
1477481000.703:  -1145  86  11  690
1477481000.703:   -890  86  11  690
1477481000.705:   -667  86  11  690
1477481000.706:   -546  86  11  690
1477481000.712:   -515  86  11  690
1477481000.728:   -467  86  11  690
1477481000.728:   -293  86  11  690
1477481000.729:     37  86  11  690
1477481000.730:    469  86  11  690
1477481000.730:    928  86  11  690
1477481000.731:   1372  86  11  690
1477481000.731:   1804  86  11  690
1477481000.732:   2262  86  11  690
1477481000.733:   2782  86  11  690
1477481000.734:   3328  86  11  690
1477481000.734:   3741  86  11  690
1477481000.737:   3821  86  11  690
1477481000.755:   3481  86  11  690
1477481000.756:   2833  86  11  690
1477481000.756:   2077  86  11  690
1477481000.757:   1285  86  11  690
1477481000.758:    369  86  11  690
1477481000.759:   -741  86  11  690
1477481000.759:  -1913  86  11  690
1477481000.760:  -2876  86  11  690
1477481000.761:  -3469  86  11  690
1477481000.761:  -3767  86  11  690
1477481000.762:  -3939  86  11  690
1477481000.762:  -4049  86  11  690
1477481000.763:  -4025  86  11  690
1477481000.763:  -3810  86  11  690
1477481000.764:  -3476  86  11  690
1477481000.767:  -3168  86  11  690
1477481000.767:  -2958  86  11  690
1477481000.769:  -2815  86  11  690
1477481000.770:  -2687  86  11  690
1477481000.771:  -2576  86  11  690
1477481000.775:  -2507  86  11  690
1477481000.776:  -2476  86  11  690
1477481000.785:  -2449  86  11  690
1477481000.785:  -2406  86  11  690
1477481000.786:  -2363  86  11  690
1477481000.786:  -2333  86  11  690
1477481000.787:  -2306  86  11  690
1477481000.788:  -2263  86  11  690
1477481000.789:  -2213  86  11  690
1477481000.792:  -2176  86  11  690
1477481000.794:  -2154  86  11  690
1477481000.798:  -2137  86  11  690
1477481000.805:  -2137  86  11  690
1477481000.806:  -2190  86  11  690
1477481000.806:  -2300  86  11  690
1477481000.806:  -2410  86  11  690
1477481000.807:  -2435  86  11  690
1477481000.809:  -2336  86  11  690
1477481000.820:  -2166  86  11  690
1477481000.822:  -2024  86  11  690
1477481000.823:  -1975  86  11  690
1477481000.824:  -2014  86  11  690
1477481000.825:  -2081  86  11  690
1477481000.826:  -2104  86  11  690
1477481000.827:  -2047  86  11  690
1477481000.828:  -1934  86  11  690
1477481000.828:  -1838  86  11  690
1477481000.829:  -1826  86  11  690
1477481000.829:  -1898  86  11  690
1477481000.829:  -1970  86  11  690
1477481000.833:  -1959  86  11  690
1477481000.834:  -1863  86  11  690
1477481000.848:  -1765  86  11  690
1477481000.850:  -1744  86  11  690
1477481000.850:  -1789  86  11  690
1477481000.850:  -1814  86  11  690
1477481000.851:  -1761  86  11  690
1477481000.851:  -1658  86  11  690
1477481000.851:  -1574  86  11  690
1477481000.853:  -1542  86  11  690
1477481000.853:  -1536  86  11  690
1477481000.855:  -1514  86  11  690
1477481000.856:  -1465  86  11  690
1477481000.857:  -1410  86  11  690
1477481000.868:  -1368  86  11  690
1477481000.869:  -1333  86  11  690
1477481000.869:  -1294  86  11  690
1477481000.870:  -1249  86  11  690
1477481000.871:  -1213  86  11  690
1477481000.872:  -1195  86  11  690
1477481000.872:  -1194  86  11  690
1477481000.874:  -1208  86  11  690
1477481000.876:  -1230  86  11  690
1477481000.881:  -1250  86  11  690
1477481000.882:  -1258  86  11  690
1477481000.884:  -1252  86  11  690
1477481000.884:  -1249  86  11  690
1477481000.886:  -1263  86  11  690
1477481000.888:  -1275  86  11  690
1477481000.891:  -1239  86  11  690
1477481000.896:  -1132  86  11  690
1477481000.896:   -997  86  11  690
1477481000.897:   -904  86  11  690
1477481000.898:   -871  86  11  690
1477481000.900:   -841  86  11  690
1477481000.902:   -754  86  11  690
1477481000.904:   -619  86  11  690
1477481000.905:   -512  86  11  690
1477481000.908:   -495  86  11  690
1477481000.909:   -546  86  11  690
1477481000.925:   -595  86  11  690
1477481000.925:   -604  86  11  690
1477481000.926:   -591  86  11  690
1477481000.926:   -591  86  11  690
1477481000.926:   -605  86  11  690
1477481000.926:   -607  86  11  690
1477481000.926:   -591  86  11  690
1477481000.926:   -569  86  11  690
1477481000.928:   -546  86  11  690
1477481000.930:   -488  86  11  690
1477481000.931:   -376  86  11  690
1477481000.935:   -251  86  11  690
1477481000.945:   -195  86  11  690
1477481000.946:   -236  86  11  690
1477481000.947:   -295  86  11  690
1477481000.948:   -267  86  11  690
1477481000.950:   -140  86  11  690
1477481000.952:    -23  86  11  690
1477481000.953:    -21  86  11  690
1477481000.954:   -116  86  11  690
1477481000.957:   -186  86  11  690
1477481000.959:   -145  86  11  690
1477481000.960:    -33  86  11  690
1477481000.960:     41  86  11  690
1477481000.960:     17  86  11  690
1477481000.960:    -66  86  11  690
1477481000.963:   -122  86  11  690
1477481000.964:   -112  86  11  690
1477481000.968:    -61  86  11  690
1477481000.969:    -27  86  11  690
1477481000.970:    -43  86  11  690
1477481000.973:   -104  88  11  683
1477481000.974:   -169  88  11  683
1477481000.976:   -202  88  11  683
1477481000.978:   -197  88  11  683
1477481000.980:   -186  88  11  683
1477481000.982:   -200  88  11  683
1477481000.987:   -234  88  11  683
1477481001.001:   -261  88  11  683
1477481001.002:   -269  88  11  683
1477481001.002:   -284  88  11  683
1477481001.003:   -327  88  11  683
1477481001.003:   -379  88  11  683
1477481001.005:   -412  88  11  683
1477481001.007:   -430  88  11  683
1477481001.010:   -474  88  11  683
1477481001.024:   -563  88  11  683
1477481001.024:   -661  88  11  683
1477481001.024:   -718  88  11  683
1477481001.024:   -731  88  11  683
1477481001.024:   -750  88  11  683
1477481001.024:   -819  88  11  683
1477481001.024:   -926  88  11  683
1477481001.025:  -1020  88  11  683
1477481001.025:  -1067  88  11  683
1477481001.025:  -1089  88  11  683
1477481001.025:  -1136  88  11  683
1477481001.025:  -1232  88  11  683
1477481001.025:  -1354  88  11  683
1477481001.026:  -1454  88  11  683
1477481001.032:  -1510  88  11  683
1477481001.032:  -1540  88  11  683
1477481001.034:  -1573  88  11  683
1477481001.035:  -1618  88  11  683
1477481001.044:  -1656  88  11  683
1477481001.044:  -1675  88  11  683
1477481001.045:  -1679  88  11  683
1477481001.045:  -1677  88  11  683
1477481001.045:  -1667  88  11  683
1477481001.052:  -1643  88  11  683
1477481001.053:  -1617  88  11  683
1477481001.054:  -1604  88  11  683
1477481001.055:  -1605  88  11  683
1477481001.056:  -1604  88  11  683
1477481001.060:  -1594  88  11  683
1477481001.060:  -1589  88  11  683
1477481001.063:  -1601  88  11  683
1477481001.064:  -1625  88  11  683
1477481001.065:  -1645  88  11  683
1477481001.068:  -1666  88  11  683
1477481001.068:  -1708  88  11  683
1477481001.070:  -1764  88  11  683
1477481001.073:  -1791  88  11  683
1477481001.077:  -1753  88  11  683
1477481001.077:  -1683  88  11  683
1477481001.080:  -1656  88  11  683
1477481001.098:  -1708  88  11  683
1477481001.098:  -1788  88  11  683
1477481001.099:  -1812  88  11  683
1477481001.099:  -1757  88  11  683
1477481001.099:  -1682  88  11  683
1477481001.101:  -1666  88  11  683
1477481001.102:  -1719  88  11  683
1477481001.102:  -1781  88  11  683
1477481001.102:  -1791  88  11  683
1477481001.102:  -1751  88  11  683
1477481001.102:  -1725  88  11  683
1477481001.104:  -1765  88  11  683
1477481001.105:  -1852  88  11  683
1477481001.106:  -1911  88  11  683
1477481001.107:  -1895  88  11  683
1477481001.113:  -1835  88  11  683
1477481001.113:  -1809  88  11  683
1477481001.114:  -1848  88  11  683
1477481001.118:  -1906  88  11  683
1477481001.118:  -1921  88  11  683
1477481001.120:  -1885  88  11  683
1477481001.121:  -1845  88  11  683
1477481001.139:  -1839  88  11  683
1477481001.140:  -1860  88  11  683
1477481001.140:  -1890  88  11  683
1477481001.140:  -1936  88  11  683
1477481001.140:  -2005  88  11  683
1477481001.141:  -2065  88  11  683
1477481001.141:  -2068  88  11  683
1477481001.141:  -2010  88  11  683
1477481001.142:  -1960  88  11  683
1477481001.146:  -1984  88  11  683
1477481001.147:  -2060  88  11  683
1477481001.147:  -2106  88  11  683
1477481001.150:  -2076  88  11  683
1477481001.150:  -2022  88  11  683
1477481001.151:  -2020  88  11  683
1477481001.152:  -2082  88  11  683
1477481001.154:  -2152  88  11  683
1477481001.156:  -2191  88  11  683
1477481001.158:  -2218  88  11  683
1477481001.161:  -2255  88  11  683
1477481001.179:  -2265  88  11  683
1477481001.180:  -2201  88  11  683
1477481001.180:  -2088  88  11  683
1477481001.181:  -2026  88  11  683
1477481001.181:  -2071  88  11  683
1477481001.182:  -2154  88  11  683
1477481001.182:  -2150  88  11  683
1477481001.183:  -2044  88  11  683
1477481001.184:  -1955  88  11  683
1477481001.184:  -1997  88  11  683
1477481001.185:  -2130  88  11  683
1477481001.185:  -2209  88  11  683
1477481001.186:  -2159  88  11  683
1477481001.187:  -2058  88  11  683
1477481001.192:  -2038  88  11  683
1477481001.192:  -2122  88  11  683
1477481001.193:  -2205  88  11  683
1477481001.195:  -2192  88  11  683
1477481001.214:  -2101  88  11  683
1477481001.215:  -2032  88  11  683
1477481001.216:  -2042  88  11  683
1477481001.217:  -2097  88  11  683
1477481001.217:  -2133  88  11  683
1477481001.218:  -2129  88  11  683
1477481001.219:  -2110  88  11  683
1477481001.219:  -2102  88  11  683
1477481001.220:  -2100  88  11  683
1477481001.221:  -2087  88  11  683
1477481001.221:  -2054  88  11  683
1477481001.222:  -2018  88  11  683
1477481001.222:  -1994  88  11  683
1477481001.223:  -1981  88  11  683
1477481001.226:  -1958  88  11  683
1477481001.226:  -1908  88  11  683
1477481001.247:  -1847  88  11  683
1477481001.247:  -1815  88  11  683
1477481001.248:  -1839  88  11  683
1477481001.250:  -1886  88  11  683
1477481001.251:  -1895  88  11  683
1477481001.252:  -1839  88  11  683
1477481001.252:  -1764  88  11  683
1477481001.253:  -1739  88  11  683
1477481001.254:  -1782  88  11  683
1477481001.254:  -1847  88  11  683
1477481001.255:  -1877  88  11  683
1477481001.255:  -1863  88  11  683
1477481001.256:  -1849  88  11  683
1477481001.257:  -1876  88  11  683
1477481001.282:  -1941  88  11  683
1477481001.346:  -2015  88  11  683
1477481001.351:  -2066  88  11  683
1477481001.352:  -2082  88  11  683
1477481001.352:  -2069  88  11  683
1477481001.353:  -2051  88  11  683
1477481001.353:  -2041  88  11  683
1477481001.353:  -2035  88  11  683
1477481001.353:  -2011  88  11  683
1477481001.353:  -1970  88  11  683
1477481001.354:  -1939  88  11  683
1477481001.354:  -1942  88  11  683
1477481001.354:  -1964  88  11  683
1477481001.354:  -1967  88  11  683
1477481001.355:  -1944  88  11  683
1477481001.355:  -1938  88  11  683
1477481001.355:  -1988  88  11  683
1477481001.355:  -2073  88  11  683
1477481001.355:  -2123  88  11  683
1477481001.356:  -2100  88  11  683
1477481001.357:  -2039  88  11  683
1477481001.357:  -2009  88  11  683
1477481001.357:  -2041  88  11  683
1477481001.359:  -2102  88  11  683
1477481001.370:  -2142  88  11  683
1477481001.371:  -2150  88  11  683
1477481001.371:  -2156  88  11  683
1477481001.371:  -2196  88  11  683
1477481001.372:  -2271  88  11  683
1477481001.372:  -2349  88  11  683
1477481001.373:  -2395  88  11  683
1477481001.373:  -2404  88  11  683
1477481001.387:  -2391  88  11  683
1477481001.388:  -2365  88  11  683
1477481001.388:  -2327  88  11  683
1477481001.388:  -2277  88  11  683
1477481001.388:  -2235  88  11  683
1477481001.388:  -2228  88  11  683
1477481001.388:  -2251  88  11  683
1477481001.388:  -2265  88  11  683
1477481001.389:  -2246  88  11  683
1477481001.389:  -2216  88  11  683
1477481001.389:  -2221  88  11  683
1477481001.389:  -2273  88  11  683
1477481001.389:  -2329  88  11  683
1477481001.390:  -2333  88  11  683
1477481001.390:  -2287  88  11  683
1477481001.390:  -2238  88  11  683
1477481001.390:  -2225  88  11  683
1477481001.390:  -2233  88  11  683
1477481001.390:  -2228  88  11  683
1477481001.391:  -2211  88  11  683
1477481001.391:  -2213  88  11  683
1477481001.391:  -2248  88  11  683
1477481001.391:  -2287  88  11  683
1477481001.391:  -2290  88  11  683
1477481001.392:  -2254  88  11  683
1477481001.392:  -2222  88  11  683
1477481001.392:  -2232  88  11  683
1477481001.392:  -2271  88  11  683
1477481001.392:  -2291  88  11  683
1477481001.392:  -2252  88  11  683
1477481001.393:  -2179  88  11  683
1477481001.393:  -2147  88  11  683
1477481001.393:  -2208  88  11  683
1477481001.393:  -2335  88  11  683
1477481001.393:  -2444  88  11  683
1477481001.393:  -2479  88  11  683
1477481001.393:  -2446  88  11  683
1477481001.393:  -2369  88  11  683
1477481001.396:  -2216  88  11  683
1477481001.397:  -1925  88  11  683
1477481001.407:  -1511  88  11  683
1477481001.407:  -1120  88  11  683
1477481001.407:   -925  88  11  683
1477481001.407:   -954  88  11  683
1477481001.408:  -1048  88  11  683
1477481001.408:  -1010  88  11  683
1477481001.410:   -793  88  11  683
1477481001.411:   -518  88  11  683
1477481001.426:   -318  88  11  683
1477481001.427:   -184  88  11  683
1477481001.427:     17  88  11  683
1477481001.427:    403  88  11  683
1477481001.428:    962  88  11  683
1477481001.429:   1558  88  11  683
1477481001.430:   2006  88  11  683
1477481001.430:   2164  88  11  683
1477481001.431:   1988  88  11  683
1477481001.431:   1531  88  11  683
1477481001.432:    898  88  11  683
1477481001.435:    166  88  11  683
1477481001.437:   -659  88  11  683
1477481001.438:  -1589  88  11  683
1477481001.443:  -2570  88  11  683
1477481001.443:  -3452  88  11  683
1477481001.445:  -4077  88  11  683
1477481001.446:  -4380  88  11  683
1477481001.448:  -4420  88  11  683
1477481001.451:  -4311  88  11  683
1477481001.452:  -4118  88  11  683
1477481001.455:  -3845  88  11  683
1477481001.473:  -3503  88  11  683
1477481001.475:  -3160  88  11  683
1477481001.476:  -2909  88  11  683
1477481001.476:  -2791  88  11  683
1477481001.477:  -2748  88  11  683
1477481001.477:  -2688  88  11  683
1477481001.478:  -2588  88  11  683
1477481001.478:  -2514  88  11  683
1477481001.478:  -2529  88  11  683
1477481001.479:  -2600  88  11  683
1477481001.502:  -2634  88  11  683
1477481001.503:  -2582  88  11  683
1477481001.512:  -2491  88  11  683
1477481001.512:  -2430  88  11  683
1477481001.512:  -2406  88  11  683
1477481001.512:  -2365  88  11  683
1477481001.513:  -2272  88  11  683
1477481001.513:  -2166  88  11  683
1477481001.513:  -2113  88  11  683
1477481001.513:  -2131  88  11  683
1477481001.513:  -2189  88  11  683
1477481001.514:  -2243  88  11  683
1477481001.514:  -2270  88  11  683
1477481001.514:  -2255  88  11  683
1477481001.514:  -2190  88  11  683
1477481001.515:  -2107  88  11  683
1477481001.515:  -2066  88  11  683
1477481001.515:  -2099  88  11  683
1477481001.515:  -2153  88  11  683
1477481001.518:  -2141  88  11  683
1477481001.518:  -2045  88  11  683
1477481001.520:  -1944  88  11  683
1477481001.520:  -1926  88  11  683
1477481001.523:  -1984  88  11  683
1477481001.527:  -2022  88  11  683
1477481001.528:  -1981  88  11  683
1477481001.530:  -1903  88  11  683
1477481001.530:  -1875  88  11  683
1477481001.535:  -1926  88  11  683
1477481001.535:  -1993  88  11  683
1477481001.536:  -1993  88  11  683
1477481001.539:  -1921  88  11  683
1477481001.556:  -1856  88  11  683
1477481001.556:  -1877  88  11  683
1477481001.557:  -1973  88  11  683
1477481001.558:  -2053  88  11  683
1477481001.559:  -2043  88  11  683
1477481001.560:  -1963  88  11  683
1477481001.561:  -1909  88  11  683
1477481001.563:  -1943  88  11  683
1477481001.563:  -2020  88  11  683
1477481001.564:  -2039  88  11  683
1477481001.576:  -1951  88  11  683
1477481001.578:  -1815  88  11  683
1477481001.579:  -1727  88  11  683
1477481001.579:  -1725  88  11  683
1477481001.579:  -1771  88  11  683
1477481001.580:  -1798  88  11  683
1477481001.580:  -1783  88  11  683
1477481001.581:  -1750  88  11  683
1477481001.582:  -1728  88  11  683
1477481001.583:  -1726  88  11  683
1477481001.584:  -1736  88  11  683
1477481001.585:  -1744  88  11  683
1477481001.596:  -1740  88  11  683
1477481001.597:  -1714  88  11  683
1477481001.598:  -1663  88  11  683
1477481001.599:  -1591  88  11  683
1477481001.600:  -1514  88  11  683
1477481001.600:  -1463  88  11  683
1477481001.601:  -1459  88  11  683
1477481001.602:  -1495  88  11  683
1477481001.603:  -1532  88  11  683
1477481001.603:  -1532  88  11  683
1477481001.604:  -1499  88  11  683
1477481001.608:  -1470  88  11  683
1477481001.616:  -1468  88  11  683
1477481001.616:  -1469  88  11  683
1477481001.616:  -1437  88  11  683
1477481001.617:  -1374  88  11  683
1477481001.617:  -1321  88  11  683
1477481001.617:  -1309  88  11  683
1477481001.621:  -1319  88  11  683
1477481001.624:  -1312  88  11  683
1477481001.634:  -1276  88  11  683
1477481001.636:  -1238  88  11  683
1477481001.638:  -1228  88  11  683
1477481001.638:  -1239  88  11  683
1477481001.639:  -1235  88  11  683
1477481001.640:  -1193  88  11  683
1477481001.646:  -1128  88  11  683
1477481001.646:  -1079  88  11  683
1477481001.647:  -1069  88  11  683
1477481001.648:  -1082  88  11  683
1477481001.649:  -1092  88  11  683
1477481001.649:  -1090  88  11  683
1477481001.650:  -1094  88  11  683
1477481001.650:  -1121  88  11  683
1477481001.650:  -1157  88  11  683
1477481001.654:  -1163  88  11  683
1477481001.654:  -1122  88  11  683
1477481001.656:  -1064  88  11  683
1477481001.657:  -1026  87  11  682
1477481001.659:  -1009  87  11  682
1477481001.671:   -981  87  11  682
1477481001.672:   -923  87  11  682
1477481001.673:   -863  87  11  682
1477481001.674:   -844  87  11  682
1477481001.677:   -879  87  11  682
1477481001.678:   -932  87  11  682
1477481001.679:   -971  87  11  682
1477481001.679:   -996  87  11  682
1477481001.690:  -1028  87  11  682
1477481001.691:  -1074  87  11  682
1477481001.692:  -1120  87  11  682
1477481001.692:  -1149  87  11  682
1477481001.694:  -1165  87  11  682
1477481001.694:  -1183  87  11  682
1477481001.696:  -1213  87  11  682
1477481001.697:  -1247  87  11  682
1477481001.709:  -1276  87  11  682
1477481001.710:  -1291  87  11  682
1477481001.710:  -1296  87  11  682
1477481001.711:  -1308  87  11  682
1477481001.711:  -1342  87  11  682
1477481001.711:  -1398  87  11  682
1477481001.712:  -1456  87  11  682
1477481001.712:  -1497  87  11  682
1477481001.713:  -1524  87  11  682
1477481001.713:  -1569  87  11  682
1477481001.714:  -1654  87  11  682
1477481001.714:  -1768  87  11  682
1477481001.714:  -1868  87  11  682
1477481001.721:  -1918  87  11  682
1477481001.728:  -1934  87  11  682
1477481001.728:  -1962  87  11  682
1477481001.729:  -2032  87  11  682
1477481001.729:  -2119  87  11  682
1477481001.729:  -2160  87  11  682
1477481001.729:  -2130  87  11  682
1477481001.734:  -2074  87  11  682
1477481001.734:  -2063  87  11  682
1477481001.736:  -2126  87  11  682
1477481001.737:  -2220  87  11  682
1477481001.739:  -2282  87  11  682
1477481001.744:  -2292  87  11  682
1477481001.753:  -2278  87  11  682
1477481001.753:  -2273  87  11  682
1477481001.753:  -2281  87  11  682
1477481001.754:  -2288  87  11  682
1477481001.754:  -2278  87  11  682
1477481001.754:  -2246  87  11  682
1477481001.755:  -2198  87  11  682
1477481001.757:  -2152  87  11  682
1477481001.765:  -2134  87  11  682
1477481001.765:  -2159  87  11  682
1477481001.777:  -2214  87  11  682
1477481001.777:  -2255  87  11  682
1477481001.777:  -2255  87  11  682
1477481001.777:  -2230  87  11  682
1477481001.777:  -2216  87  11  682
1477481001.777:  -2227  87  11  682
1477481001.778:  -2230  87  11  682
1477481001.778:  -2193  87  11  682
1477481001.779:  -2129  87  11  682
1477481001.780:  -2077  87  11  682
1477481001.782:  -2064  87  11  682
1477481001.785:  -2077  87  11  682
1477481001.789:  -2081  87  11  682
1477481001.790:  -2059  87  11  682
1477481001.791:  -2020  87  11  682
1477481001.793:  -1981  87  11  682
1477481001.804:  -1955  87  11  682
1477481001.805:  -1945  87  11  682
1477481001.805:  -1947  87  11  682
1477481001.806:  -1950  87  11  682
1477481001.806:  -1941  87  11  682
1477481001.806:  -1919  87  11  682
1477481001.807:  -1904  87  11  682
1477481001.808:  -1913  87  11  682
1477481001.811:  -1947  87  11  682
1477481001.813:  -1977  87  11  682
1477481001.822:  -1980  87  11  682
1477481001.823:  -1961  87  11  682
1477481001.824:  -1937  87  11  682
1477481001.825:  -1919  87  11  682
1477481001.826:  -1901  87  11  682
1477481001.826:  -1870  87  11  682
1477481001.828:  -1834  87  11  682
1477481001.831:  -1807  87  11  682
1477481001.838:  -1797  87  11  682
1477481001.839:  -1799  87  11  682
1477481001.840:  -1809  87  11  682
1477481001.841:  -1825  87  11  682
1477481001.841:  -1841  87  11  682
1477481001.848:  -1844  87  11  682
1477481001.857:  -1827  87  11  682
1477481001.857:  -1810  87  11  682
1477481001.857:  -1814  87  11  682
1477481001.858:  -1828  87  11  682
1477481001.858:  -1812  87  11  682
1477481001.858:  -1746  87  11  682
1477481001.858:  -1673  87  11  682
1477481001.858:  -1660  87  11  682
1477481001.859:  -1717  87  11  682
1477481001.860:  -1782  87  11  682
1477481001.863:  -1788  87  11  682
1477481001.863:  -1743  87  11  682
1477481001.873:  -1714  87  11  682
1477481001.874:  -1743  87  11  682
1477481001.877:  -1793  87  11  682
1477481001.878:  -1804  87  11  682
1477481001.878:  -1758  87  11  682
1477481001.880:  -1694  87  11  682
1477481001.881:  -1654  87  11  682
1477481001.882:  -1638  87  11  682
1477481001.883:  -1620  87  11  682
1477481001.884:  -1582  87  11  682
1477481001.885:  -1534  87  11  682
1477481001.888:  -1497  87  11  682
1477481001.891:  -1492  87  11  682
1477481001.892:  -1532  87  11  682
1477481001.893:  -1592  87  11  682
1477481001.896:  -1623  87  11  682
1477481001.896:  -1591  87  11  682
1477481001.899:  -1533  87  11  682
1477481001.901:  -1519  87  11  682
1477481001.907:  -1575  87  11  682
1477481001.907:  -1631  87  11  682
1477481001.909:  -1598  87  11  682
1477481001.912:  -1477  87  11  682
1477481001.913:  -1370  87  11  682
1477481001.913:  -1366  87  11  682
1477481001.918:  -1440  87  11  682
1477481001.932:  -1489  87  11  682
1477481001.932:  -1452  87  11  682
1477481001.933:  -1372  87  11  682
1477481001.933:  -1325  87  11  682
1477481001.933:  -1337  87  11  682
1477481001.933:  -1372  87  11  682
1477481001.933:  -1400  87  11  682
1477481001.938:  -1434  87  11  682
1477481001.938:  -1494  87  11  682
1477481001.938:  -1560  87  11  682
1477481001.938:  -1589  87  11  682
1477481001.939:  -1570  87  11  682
1477481001.939:  -1536  87  11  682
1477481001.944:  -1524  87  11  682
1477481001.956:  -1529  87  11  682
1477481001.956:  -1512  87  11  682
1477481001.956:  -1445  87  11  682
1477481001.956:  -1345  87  11  682
1477481002.037:  -1260  87  11  682
1477481002.038:  -1228  87  11  682
1477481002.038:  -1254  87  11  682
1477481002.038:  -1313  87  11  682
1477481002.038:  -1372  87  11  682
1477481002.039:  -1419  87  11  682
1477481002.039:  -1461  87  11  682
1477481002.039:  -1508  87  11  682
1477481002.039:  -1558  87  11  682
1477481002.039:  -1594  87  11  682
1477481002.040:  -1606  87  11  682
1477481002.040:  -1601  87  11  682
1477481002.040:  -1583  87  11  682
1477481002.041:  -1551  87  11  682
1477481002.041:  -1502  87  11  682
1477481002.041:  -1454  87  11  682
1477481002.042:  -1442  87  11  682
1477481002.042:  -1480  87  11  682
1477481002.042:  -1540  87  11  682
1477481002.042:  -1585  87  11  682
1477481002.043:  -1596  87  11  682
1477481002.043:  -1591  87  11  682
1477481002.043:  -1586  87  11  682
1477481002.044:  -1583  87  11  682
1477481002.044:  -1575  87  11  682
1477481002.044:  -1565  87  11  682
1477481002.044:  -1557  87  11  682
1477481002.045:  -1552  87  11  682
1477481002.046:  -1543  87  11  682
1477481002.046:  -1543  87  11  682
1477481002.047:  -1560  87  11  682
1477481002.047:  -1595  87  11  682
1477481002.047:  -1626  87  11  682
1477481002.048:  -1645  87  11  682
1477481002.048:  -1663  87  11  682
1477481002.048:  -1696  87  11  682
1477481002.049:  -1738  87  11  682
1477481002.049:  -1772  87  11  682
1477481002.049:  -1797  87  11  682
1477481002.049:  -1821  87  11  682
1477481002.064:  -1833  87  11  682
1477481002.064:  -1813  87  11  682
1477481002.064:  -1766  87  11  682
1477481002.064:  -1721  87  11  682
1477481002.065:  -1708  87  11  682
1477481002.065:  -1712  87  11  682
1477481002.065:  -1700  87  11  682
1477481002.065:  -1671  87  11  682
1477481002.065:  -1659  87  11  682
1477481002.065:  -1682  87  11  682
1477481002.065:  -1705  87  11  682
1477481002.065:  -1691  87  11  682
1477481002.066:  -1652  87  11  682
1477481002.067:  -1644  87  11  682
1477481002.067:  -1685  87  11  682
1477481002.067:  -1727  87  11  682
1477481002.067:  -1723  87  11  682
1477481002.067:  -1682  87  11  682
1477481002.068:  -1656  87  11  682
1477481002.068:  -1672  87  11  682
1477481002.070:  -1699  87  11  682
1477481002.071:  -1702  87  11  682
1477481002.072:  -1676  87  11  682
1477481002.075:  -1645  87  11  682
1477481002.089:  -1627  87  11  682
1477481002.089:  -1625  87  11  682
1477481002.089:  -1643  87  11  682
1477481002.089:  -1687  87  11  682
1477481002.089:  -1748  87  11  682
1477481002.090:  -1803  87  11  682
1477481002.090:  -1837  87  11  682
1477481002.090:  -1833  87  11  682
1477481002.095:  -1768  87  11  682
1477481002.095:  -1606  87  11  682
1477481002.097:  -1365  87  11  682
1477481002.098:  -1135  87  11  682
1477481002.100:  -1008  87  11  682
1477481002.102:   -991  87  11  682
1477481002.104:   -975  87  11  682
1477481002.106:   -837  87  11  682
1477481002.111:   -548  87  11  682
1477481002.112:   -169  87  11  682
1477481002.114:    258  87  11  682
1477481002.114:    747  87  11  682
1477481002.116:   1322  87  11  682
1477481002.118:   1947  87  11  682
1477481002.140:   2556  87  11  682
1477481002.140:   3119  87  11  682
1477481002.140:   3628  87  11  682
1477481002.141:   4002  87  11  682
1477481002.141:   4088  87  11  682
1477481002.141:   3770  87  11  682
1477481002.141:   3103  87  11  682
1477481002.141:   2280  87  11  682
1477481002.141:   1446  87  11  682
1477481002.142:    588  87  11  682
1477481002.142:   -364  87  11  682
1477481002.142:  -1375  87  11  682
1477481002.143:  -2278  87  11  682
1477481002.144:  -2916  87  11  682
1477481002.147:  -3276  87  11  682
1477481002.150:  -3464  87  11  682
1477481002.150:  -3569  87  11  682
1477481002.155:  -3598  87  11  682
1477481002.170:  -3511  87  11  682
1477481002.171:  -3326  87  11  682
1477481002.171:  -3122  87  11  682
1477481002.171:  -2968  87  11  682
1477481002.171:  -2872  87  11  682
1477481002.171:  -2790  87  11  682
1477481002.172:  -2684  87  11  682
1477481002.172:  -2552  87  11  682
1477481002.173:  -2424  87  11  682
1477481002.173:  -2356  87  11  682
1477481002.174:  -2388  87  11  682
1477481002.175:  -2520  87  11  682
1477481002.183:  -2681  87  11  682
1477481002.183:  -2762  87  11  682
1477481002.195:  -2699  87  11  682
1477481002.195:  -2544  87  11  682
1477481002.195:  -2421  87  11  682
1477481002.195:  -2408  87  11  682
1477481002.196:  -2471  87  11  682
1477481002.196:  -2506  87  11  682
1477481002.196:  -2458  87  11  682
1477481002.197:  -2366  87  11  682
1477481002.198:  -2311  87  11  682
1477481002.204:  -2329  87  11  682
1477481002.204:  -2377  87  11  682
1477481002.205:  -2387  87  11  682
1477481002.209:  -2343  87  11  682
1477481002.209:  -2291  87  11  682
1477481002.220:  -2281  87  11  682
1477481002.220:  -2324  87  11  682
1477481002.220:  -2386  87  11  682
1477481002.220:  -2429  87  11  682
1477481002.220:  -2449  87  11  682
1477481002.221:  -2467  87  11  682
1477481002.224:  -2494  87  11  682
1477481002.225:  -2517  87  11  682
1477481002.226:  -2517  87  11  682
1477481002.227:  -2500  87  11  682
1477481002.232:  -2486  87  11  682
1477481002.233:  -2482  87  11  682
1477481002.236:  -2469  87  11  682
1477481002.236:  -2432  87  11  682
1477481002.238:  -2384  87  11  682
1477481002.239:  -2351  87  11  682
1477481002.242:  -2340  87  11  682
1477481002.243:  -2338  87  11  682
1477481002.246:  -2332  87  11  682
1477481002.250:  -2336  87  11  682
1477481002.250:  -2366  87  11  682
1477481002.252:  -2414  87  11  682
1477481002.265:  -2455  87  11  682
1477481002.265:  -2481  87  11  682
1477481002.265:  -2500  87  11  682
1477481002.265:  -2515  87  11  682
1477481002.267:  -2516  87  11  682
1477481002.268:  -2502  87  11  682
1477481002.268:  -2493  87  11  682
1477481002.269:  -2506  87  11  682
1477481002.269:  -2529  87  11  682
1477481002.271:  -2535  87  11  682
1477481002.273:  -2525  87  11  682
1477481002.277:  -2527  87  11  682
1477481002.285:  -2568  87  11  682
1477481002.285:  -2627  87  11  682
1477481002.286:  -2660  87  11  682
1477481002.286:  -2649  87  11  682
1477481002.287:  -2621  87  11  682
1477481002.287:  -2625  87  11  682
1477481002.292:  -2675  87  11  682
1477481002.292:  -2737  87  11  682
1477481002.293:  -2760  87  11  682
1477481002.296:  -2728  87  11  682
1477481002.297:  -2678  87  11  682
1477481002.298:  -2677  87  11  682
1477481002.303:  -2755  87  11  682
1477481002.310:  -2869  87  11  682
1477481002.310:  -2938  87  11  682
1477481002.310:  -2922  87  11  682
1477481002.317:  -2859  87  11  682
1477481002.318:  -2828  87  11  682
1477481002.331:  -2876  87  11  682
1477481002.331:  -2970  87  11  682
1477481002.331:  -3038  87  11  682
1477481002.331:  -3043  87  11  682
1477481002.331:  -3010  87  11  682
1477481002.332:  -3006  87  11  682
1477481002.332:  -3078  87  11  682
1477481002.332:  -3208  87  11  682
1477481002.335:  -3323  87  11  682
1477481002.336:  -3370  87  11  682
1477481002.336:  -3362  87  11  682
1477481002.337:  -3371  87  11  682
1477481002.342:  -3449  87  11  682
1477481002.342:  -3560  87  11  682
1477481002.344:  -3635  87  11  682
1477481002.344:  -3651  87  11  682
1477481002.381:  -3665  87  11  682
1477481002.382:  -3750  87  11  682
1477481002.382:  -3904  87  11  682
1477481002.382:  -4037  87  11  682
1477481002.382:  -4085  87  11  682
1477481002.383:  -4072  87  11  682
1477481002.384:  -4065  87  11  682
1477481002.385:  -4091  87  11  682
1477481002.386:  -4114  87  11  682
1477481002.390:  -4102  87  11  682
1477481002.411:  -4068  87  11  682
1477481002.412:  -4047  87  11  682
1477481002.412:  -4043  87  11  682
1477481002.412:  -4037  87  11  682
1477481002.412:  -4027  87  11  682
1477481002.412:  -4042  87  11  682
1477481002.413:  -4098  86  11  692
1477481002.413:  -4160  86  11  692
1477481002.413:  -4177  86  11  692
1477481002.413:  -4143  86  11  692
1477481002.413:  -4103  86  11  692
1477481002.414:  -4098  86  11  692
1477481002.414:  -4126  86  11  692
1477481002.414:  -4162  86  11  692
1477481002.415:  -4194  86  11  692
1477481002.415:  -4225  86  11  692
1477481002.415:  -4246  86  11  692
1477481002.415:  -4239  86  11  692
1477481002.415:  -4213  86  11  692
1477481002.416:  -4211  86  11  692
1477481002.416:  -4256  86  11  692
1477481002.416:  -4319  86  11  692
1477481002.417:  -4338  86  11  692
1477481002.417:  -4292  86  11  692
1477481002.417:  -4234  86  11  692
1477481002.418:  -4233  86  11  692
1477481002.418:  -4311  86  11  692
1477481002.418:  -4424  86  11  692
1477481002.421:  -4514  86  11  692
1477481002.421:  -4556  86  11  692
1477481002.422:  -4575  86  11  692
1477481002.424:  -4596  86  11  692
1477481002.426:  -4622  86  11  692
1477481002.427:  -4637  86  11  692
1477481002.433:  -4636  86  11  692
1477481002.433:  -4633  86  11  692
1477481002.435:  -4653  86  11  692
1477481002.436:  -4714  86  11  692
1477481002.449:  -4794  86  11  692
1477481002.450:  -4844  86  11  692
1477481002.463:  -4826  86  11  692
1477481002.464:  -4751  86  11  692
1477481002.465:  -4678  86  11  692
1477481002.468:  -4653  86  11  692
1477481002.469:  -4662  86  11  692
1477481002.471:  -4636  86  11  692
1477481002.472:  -4524  86  11  692
1477481002.472:  -4356  86  11  692
1477481002.472:  -4220  86  11  692
1477481002.473:  -4187  86  11  692
1477481002.474:  -4244  86  11  692
1477481002.475:  -4317  86  11  692
1477481002.476:  -4346  86  11  692
1477481002.477:  -4322  86  11  692
1477481002.489:  -4280  86  11  692
1477481002.490:  -4243  86  11  692
1477481002.490:  -4211  86  11  692
1477481002.490:  -4175  86  11  692
1477481002.490:  -4124  86  11  692
1477481002.491:  -4055  86  11  692
1477481002.491:  -3958  86  11  692
1477481002.491:  -3839  86  11  692
1477481002.491:  -3729  86  11  692
1477481002.492:  -3662  86  11  692
1477481002.492:  -3641  86  11  692
1477481002.492:  -3635  86  11  692
1477481002.492:  -3613  86  11  692
1477481002.494:  -3573  86  11  692
1477481002.497:  -3541  86  11  692
1477481002.502:  -3528  86  11  692
1477481002.503:  -3519  86  11  692
1477481002.503:  -3497  86  11  692
1477481002.506:  -3473  86  11  692
1477481002.507:  -3466  86  11  692
1477481002.509:  -3476  86  11  692
1477481002.511:  -3476  86  11  692
1477481002.517:  -3456  86  11  692
1477481002.519:  -3426  86  11  692
1477481002.520:  -3391  86  11  692
1477481002.520:  -3332  86  11  692
1477481002.520:  -3243  86  11  692
1477481002.523:  -3177  86  11  692
1477481002.536:  -3209  86  11  692
1477481002.537:  -3339  86  11  692
1477481002.539:  -3451  86  11  692
1477481002.540:  -3430  86  11  692
1477481002.540:  -3293  86  11  692
1477481002.541:  -3177  86  11  692
1477481002.542:  -3176  86  11  692
1477481002.542:  -3231  86  11  692
1477481002.545:  -3209  86  11  692
1477481002.546:  -3069  86  11  692
1477481002.559:  -2911  86  11  692
1477481002.560:  -2846  86  11  692
1477481002.560:  -2872  86  11  692
1477481002.561:  -2901  86  11  692
1477481002.561:  -2881  86  11  692
1477481002.561:  -2845  86  11  692
1477481002.563:  -2837  86  11  692
1477481002.563:  -2849  86  11  692
1477481002.564:  -2840  86  11  692
1477481002.564:  -2801  86  11  692
1477481002.565:  -2763  86  11  692
1477481002.568:  -2733  86  11  692
1477481002.569:  -2691  86  11  692
1477481002.571:  -2627  86  11  692
1477481002.572:  -2575  86  11  692
1477481002.575:  -2574  86  11  692
1477481002.575:  -2607  86  11  692
1477481002.577:  -2620  86  11  692
1477481002.580:  -2585  86  11  692
1477481002.581:  -2541  86  11  692
1477481002.620:  -2532  86  11  692
1477481002.620:  -2551  86  11  692
1477481002.620:  -2557  86  11  692
1477481002.620:  -2542  86  11  692
1477481002.621:  -2536  86  11  692
1477481002.621:  -2560  86  11  692
1477481002.621:  -2573  86  11  692
1477481002.621:  -2526  86  11  692
1477481002.622:  -2430  86  11  692
1477481002.622:  -2355  86  11  692
1477481002.622:  -2342  86  11  692
1477481002.623:  -2343  86  11  692
1477481002.623:  -2272  86  11  692
1477481002.623:  -2115  86  11  692
1477481002.623:  -1959  86  11  692
1477481002.623:  -1903  86  11  692
1477481002.624:  -1949  86  11  692
1477481002.624:  -2004  86  11  692
1477481002.624:  -1984  86  11  692
1477481002.627:  -1906  86  11  692
1477481002.631:  -1843  86  11  692
1477481002.631:  -1833  86  11  692
1477481002.632:  -1838  86  11  692
1477481002.632:  -1801  86  11  692
1477481002.632:  -1729  86  11  692
1477481002.634:  -1678  86  11  692
1477481002.634:  -1687  86  11  692
1477481002.636:  -1725  86  11  692
1477481002.638:  -1740  86  11  692
1477481002.639:  -1716  86  11  692
1477481002.653:  -1679  86  11  692
1477481002.653:  -1658  86  11  692
1477481002.654:  -1643  86  11  692
1477481002.655:  -1610  86  11  692
1477481002.655:  -1565  86  11  692
1477481002.656:  -1540  86  11  692
1477481002.656:  -1549  86  11  692
1477481002.658:  -1553  86  11  692
1477481002.659:  -1517  86  11  692
1477481002.664:  -1461  86  11  692
1477481002.677:  -1452  86  11  692
1477481002.677:  -1528  86  11  692
1477481002.678:  -1644  86  11  692
1477481002.678:  -1709  86  11  692
1477481002.678:  -1682  86  11  692
1477481002.679:  -1610  86  11  692
1477481002.679:  -1569  86  11  692
1477481002.679:  -1583  86  11  692
1477481002.680:  -1608  86  11  692
1477481002.680:  -1595  86  11  692
1477481002.684:  -1539  86  11  692
1477481002.685:  -1476  86  11  692
1477481002.687:  -1436  86  11  692
1477481002.692:  -1417  86  11  692
1477481002.728:  -1408  86  11  692
1477481002.805:  -1410  86  11  692
1477481002.806:  -1421  86  11  692
1477481002.806:  -1435  86  11  692
1477481002.806:  -1448  86  11  692
1477481002.806:  -1474  86  11  692
1477481002.806:  -1534  86  11  692
1477481002.807:  -1615  86  11  692
1477481002.807:  -1670  86  11  692
1477481002.807:  -1661  86  11  692
1477481002.807:  -1603  86  11  692
1477481002.807:  -1559  86  11  692
1477481002.811:  -1564  86  11  692
1477481002.813:  -1589  86  11  692
1477481002.813:  -1583  86  11  692
1477481002.814:  -1541  86  11  692
1477481002.814:  -1510  86  11  692
1477481002.814:  -1531  86  11  692
1477481002.814:  -1590  86  11  692
1477481002.815:  -1637  86  11  692
1477481002.815:  -1654  86  11  692
1477481002.815:  -1663  86  11  692
1477481002.815:  -1680  86  11  692
1477481002.816:  -1679  86  11  692
1477481002.816:  -1624  86  11  692
1477481002.817:  -1535  86  11  692
1477481002.817:  -1478  86  11  692
1477481002.817:  -1496  86  11  692
1477481002.817:  -1546  86  11  692
1477481002.818:  -1550  86  11  692
1477481002.818:  -1484  86  11  692
1477481002.819:  -1414  86  11  692
1477481002.819:  -1414  86  11  692
1477481002.820:  -1486  86  11  692
1477481002.820:  -1546  86  11  692
1477481002.821:  -1521  86  11  692
1477481002.821:  -1432  86  11  692
1477481002.821:  -1369  86  11  692
1477481002.821:  -1388  86  11  692
1477481002.822:  -1458  86  11  692
1477481002.840:  -1512  86  11  692
1477481002.840:  -1529  86  11  692
1477481002.841:  -1552  86  11  692
1477481002.841:  -1618  86  11  692
1477481002.841:  -1701  86  11  692
1477481002.841:  -1742  86  11  692
1477481002.841:  -1710  86  11  692
1477481002.841:  -1612  86  11  692
1477481002.841:  -1440  86  11  692
1477481002.842:  -1155  86  11  692
1477481002.842:   -767  86  11  692
1477481002.842:   -395  86  11  692
1477481002.842:   -185  86  11  692
1477481002.842:   -178  86  11  692
1477481002.843:   -254  86  11  692
1477481002.843:   -259  86  11  692
1477481002.843:   -155  86  11  692
1477481002.843:    -17  86  11  692
1477481002.844:    113  86  11  692
1477481002.844:    288  86  11  692
1477481002.844:    580  86  11  692
1477481002.844:    983  86  11  692
1477481002.845:   1430  86  11  692
1477481002.845:   1894  86  11  692
1477481002.845:   2377  86  11  692
1477481002.845:   2796  86  11  692
1477481002.845:   2958  86  11  692
1477481002.845:   2705  86  11  692
1477481002.845:   2078  86  11  692
1477481002.846:   1277  86  11  692
1477481002.846:    456  86  11  692
1477481002.846:   -382  86  11  692
1477481002.846:  -1285  86  11  692
1477481002.846:  -2184  86  11  692
1477481002.846:  -2917  86  11  692
1477481002.847:  -3381  86  11  692
1477481002.847:  -3611  86  11  692
1477481002.847:  -3676  86  11  692
1477481002.847:  -3578  86  11  692
1477481002.854:  -3298  86  11  692
1477481002.875:  -2893  86  11  692
1477481002.875:  -2517  86  11  692
1477481002.875:  -2280  86  11  692
1477481002.875:  -2162  86  11  692
1477481002.876:  -2061  86  11  692
1477481002.876:  -1920  86  11  692
1477481002.876:  -1771  86  11  692
1477481002.877:  -1669  86  11  692
1477481002.877:  -1633  86  11  692
1477481002.877:  -1651  86  11  692
1477481002.877:  -1705  86  11  692
1477481002.877:  -1772  86  11  692
1477481002.878:  -1819  86  11  692
1477481002.878:  -1810  86  11  692
1477481002.878:  -1744  86  11  692
1477481002.879:  -1660  86  11  692
1477481002.882:  -1591  86  11  692
1477481002.883:  -1550  86  11  692
1477481002.883:  -1531  86  11  692
1477481002.886:  -1521  86  11  692
1477481002.886:  -1508  86  11  692
1477481002.887:  -1475  86  11  692
1477481002.903:  -1419  86  11  692
1477481002.903:  -1373  86  11  692
1477481002.903:  -1368  86  11  692
1477481002.903:  -1397  86  11  692
1477481002.903:  -1424  86  11  692
1477481002.904:  -1433  86  11  692
1477481002.904:  -1440  86  11  692
1477481002.904:  -1454  86  11  692
1477481002.904:  -1454  86  11  692
1477481002.909:  -1422  86  11  692
1477481002.909:  -1391  86  11  692
1477481002.911:  -1412  86  11  692
1477481002.913:  -1482  86  11  692
1477481002.915:  -1533  86  11  692
1477481002.917:  -1505  86  11  692
1477481002.919:  -1426  86  11  692
1477481002.921:  -1373  86  11  692
1477481002.922:  -1373  86  11  692
1477481002.927:  -1373  86  11  692
1477481002.927:  -1318  86  11  692
1477481002.937:  -1219  86  11  692
1477481002.937:  -1140  86  11  692
1477481002.937:  -1110  86  11  692
1477481002.938:  -1103  86  11  692
1477481002.939:  -1091  86  11  692
1477481002.939:  -1090  86  11  692
1477481002.940:  -1129  86  11  692
1477481002.945:  -1193  86  11  692
1477481002.954:  -1239  86  11  692
1477481002.954:  -1243  86  11  692
1477481002.955:  -1225  86  11  692
1477481002.955:  -1219  86  11  692
1477481002.955:  -1221  86  11  692
1477481002.955:  -1201  86  11  692
1477481002.957:  -1152  86  11  692
1477481002.959:  -1097  86  11  692
1477481002.963:  -1072  86  11  692
1477481002.963:  -1088  86  11  692
1477481002.972:  -1130  86  11  692
1477481002.972:  -1175  86  11  692
1477481002.972:  -1204  86  11  692
1477481002.972:  -1208  86  11  692
1477481002.972:  -1191  86  11  692
1477481002.976:  -1170  86  11  692
1477481002.976:  -1165  86  11  692
1477481002.978:  -1174  86  11  692
1477481002.979:  -1173  86  11  692
1477481002.980:  -1142  86  11  692
1477481002.984:  -1078  86  11  692
1477481002.986:  -1004  86  11  692
1477481002.990:   -952  86  11  692
1477481002.992:   -934  86  11  692
1477481002.993:   -929  86  11  692
1477481002.994:   -903  86  11  692
1477481002.996:   -837  86  11  692
1477481002.997:   -758  86  11  692
1477481003.010:   -718  86  11  692
1477481003.010:   -745  86  11  692
1477481003.011:   -817  86  11  692
1477481003.011:   -871  86  11  692
1477481003.011:   -868  86  11  692
1477481003.011:   -817  86  11  692
1477481003.011:   -754  86  11  692
1477481003.013:   -700  86  11  692
1477481003.018:   -645  86  11  692
1477481003.018:   -574  86  11  692
1477481003.019:   -493  86  11  692
1477481003.020:   -423  86  11  692
1477481003.031:   -376  86  11  692
1477481003.031:   -346  86  11  692
1477481003.031:   -332  86  11  692
1477481003.031:   -340  86  11  692
1477481003.032:   -374  86  11  692
1477481003.034:   -418  86  11  692
1477481003.035:   -449  86  11  692
1477481003.036:   -456  86  11  692
1477481003.038:   -455  86  11  692
1477481003.041:   -462  86  11  692
1477481003.046:   -474  86  11  692
1477481003.047:   -465  86  11  692
1477481003.047:   -419  86  11  692
1477481003.048:   -359  86  11  692
1477481003.051:   -334  88  11  689
1477481003.052:   -372  88  11  689
1477481003.054:   -446  88  11  689
1477481003.056:   -497  88  11  689
1477481003.061:   -491  88  11  689
1477481003.061:   -447  88  11  689
1477481003.073:   -422  88  11  689
1477481003.073:   -441  88  11  689
1477481003.073:   -483  88  11  689
1477481003.073:   -510  88  11  689
1477481003.073:   -518  88  11  689
1477481003.073:   -545  88  11  689
1477481003.074:   -612  88  11  689
1477481003.077:   -695  88  11  689
1477481003.078:   -744  88  11  689
1477481003.079:   -748  88  11  689
1477481003.081:   -745  88  11  689
1477481003.083:   -782  88  11  689
1477481003.094:   -855  88  11  689
1477481003.094:   -910  88  11  689
1477481003.094:   -920  88  11  689
1477481003.095:   -924  88  11  689
1477481003.095:   -994  88  11  689
1477481003.096:  -1156  88  11  689
1477481003.097:  -1361  88  11  689
1477481003.100:  -1525  88  11  689
1477481003.101:  -1604  88  11  689
1477481003.105:  -1625  88  11  689
1477481003.106:  -1646  88  11  689
1477481003.107:  -1697  88  11  689
1477481003.109:  -1759  88  11  689
1477481003.111:  -1781  88  11  689
1477481003.114:  -1733  88  11  689
1477481003.114:  -1641  88  11  689
1477481003.130:  -1572  88  11  689
1477481003.130:  -1588  88  11  689
1477481003.130:  -1682  88  11  689
1477481003.131:  -1798  88  11  689
1477481003.131:  -1895  88  11  689
1477481003.131:  -1992  88  11  689
1477481003.131:  -2123  88  11  689
1477481003.131:  -2270  88  11  689
1477481003.132:  -2361  88  11  689
1477481003.136:  -2350  88  11  689
1477481003.136:  -2278  88  11  689
1477481003.138:  -2231  88  11  689
1477481003.139:  -2234  88  11  689
1477481003.147:  -2230  88  11  689
1477481003.154:  -2165  88  11  689
1477481003.154:  -2074  88  11  689
1477481003.154:  -2045  88  11  689
1477481003.154:  -2112  88  11  689
1477481003.155:  -2208  88  11  689
1477481003.155:  -2249  88  11  689
1477481003.157:  -2231  88  11  689
1477481003.161:  -2221  88  11  689
1477481003.162:  -2263  88  11  689
1477481003.164:  -2322  88  11  689
1477481003.174:  -2336  88  11  689
1477481003.174:  -2293  88  11  689
1477481003.174:  -2236  88  11  689
1477481003.174:  -2207  88  11  689
1477481003.174:  -2208  88  11  689
1477481003.175:  -2223  88  11  689
1477481003.178:  -2245  88  11  689
1477481003.178:  -2272  88  11  689
1477481003.179:  -2284  88  11  689
1477481003.182:  -2258  88  11  689
1477481003.186:  -2206  88  11  689
1477481003.186:  -2174  88  11  689
1477481003.188:  -2185  88  11  689
1477481003.189:  -2202  88  11  689
1477481003.191:  -2162  88  11  689
1477481003.194:  -2055  88  11  689
1477481003.203:  -1948  88  11  689
1477481003.203:  -1917  88  11  689
1477481003.203:  -1974  88  11  689
1477481003.204:  -2056  88  11  689
1477481003.204:  -2092  88  11  689
1477481003.204:  -2068  88  11  689
1477481003.207:  -2033  88  11  689
1477481003.210:  -2033  88  11  689
1477481003.214:  -2067  88  11  689
1477481003.214:  -2092  88  11  689
1477481003.218:  -2070  88  11  689
1477481003.219:  -2011  88  11  689
1477481003.219:  -1958  88  11  689
1477481003.221:  -1942  88  11  689
1477481003.223:  -1951  88  11  689
1477481003.224:  -1956  88  11  689
1477481003.236:  -1950  88  11  689
1477481003.236:  -1957  88  11  689
1477481003.236:  -2000  88  11  689
1477481003.236:  -2062  88  11  689
1477481003.257:  -2105  88  11  689
1477481003.259:  -2112  88  11  689
1477481003.261:  -2108  88  11  689
1477481003.262:  -2116  88  11  689
1477481003.263:  -2125  88  11  689
1477481003.263:  -2101  88  11  689
1477481003.264:  -2035  88  11  689
1477481003.264:  -1965  88  11  689
1477481003.265:  -1931  88  11  689
1477481003.268:  -1935  88  11  689
1477481003.269:  -1948  88  11  689
1477481003.269:  -1952  88  11  689
1477481003.270:  -1965  88  11  689
1477481003.271:  -2006  88  11  689
1477481003.271:  -2065  88  11  689
1477481003.272:  -2108  88  11  689
1477481003.272:  -2121  88  11  689
1477481003.277:  -2124  88  11  689
1477481003.277:  -2139  88  11  689
1477481003.277:  -2154  88  11  689
1477481003.277:  -2141  88  11  689
1477481003.277:  -2096  88  11  689
1477481003.278:  -2044  88  11  689
1477481003.279:  -2008  88  11  689
1477481003.295:  -1986  88  11  689
1477481003.295:  -1965  88  11  689
1477481003.296:  -1950  88  11  689
1477481003.296:  -1958  88  11  689
1477481003.297:  -1977  88  11  689
1477481003.297:  -1974  88  11  689
1477481003.297:  -1941  88  11  689
1477481003.299:  -1913  88  11  689
1477481003.300:  -1933  88  11  689
1477481003.305:  -1985  88  11  689
1477481003.315:  -2004  88  11  689
1477481003.315:  -1950  88  11  689
1477481003.315:  -1865  88  11  689
1477481003.316:  -1826  88  11  689
1477481003.316:  -1854  88  11  689
1477481003.316:  -1891  88  11  689
1477481003.316:  -1873  88  11  689
1477481003.317:  -1803  88  11  689
1477481003.317:  -1739  88  11  689
1477481003.319:  -1719  88  11  689
1477481003.324:  -1724  88  11  689
1477481003.325:  -1717  88  11  689
1477481003.326:  -1694  88  11  689
1477481003.329:  -1680  88  11  689
1477481003.329:  -1684  88  11  689
1477481003.331:  -1686  88  11  689
1477481003.334:  -1674  88  11  689
1477481003.334:  -1662  88  11  689
1477481003.337:  -1675  88  11  689
1477481003.338:  -1714  88  11  689
1477481003.341:  -1758  88  11  689
1477481003.342:  -1792  88  11  689
1477481003.347:  -1823  88  11  689
1477481003.347:  -1859  88  11  689
1477481003.381:  -1892  88  11  689
1477481003.445:  -1903  88  11  689
1477481003.453:  -1887  88  11  689
1477481003.453:  -1861  88  11  689
1477481003.453:  -1848  88  11  689
1477481003.453:  -1851  88  11  689
1477481003.454:  -1859  88  11  689
1477481003.454:  -1859  88  11  689
1477481003.454:  -1846  88  11  689
1477481003.454:  -1825  88  11  689
1477481003.454:  -1816  88  11  689
1477481003.454:  -1837  88  11  689
1477481003.454:  -1882  88  11  689
1477481003.455:  -1916  88  11  689
1477481003.455:  -1897  88  11  689
1477481003.455:  -1825  88  11  689
1477481003.455:  -1749  88  11  689
1477481003.455:  -1728  88  11  689
1477481003.455:  -1767  88  11  689
1477481003.455:  -1818  88  11  689
1477481003.455:  -1828  88  11  689
1477481003.456:  -1795  88  11  689
1477481003.456:  -1768  88  11  689
1477481003.456:  -1796  88  11  689
1477481003.456:  -1874  88  11  689
1477481003.456:  -1953  88  11  689
1477481003.456:  -1987  88  11  689
1477481003.456:  -1974  88  11  689
1477481003.457:  -1941  88  11  689
1477481003.457:  -1912  88  11  689
1477481003.457:  -1889  88  11  689
1477481003.457:  -1869  88  11  689
1477481003.457:  -1856  88  11  689
1477481003.457:  -1851  88  11  689
1477481003.457:  -1847  88  11  689
1477481003.457:  -1839  88  11  689
1477481003.458:  -1848  88  11  689
1477481003.458:  -1903  88  11  689
1477481003.458:  -1994  88  11  689
1477481003.458:  -2066  88  11  689
1477481003.458:  -2066  88  11  689
1477481003.458:  -2012  88  11  689
1477481003.458:  -1971  88  11  689
1477481003.459:  -1983  88  11  689
1477481003.459:  -2011  88  11  689
1477481003.459:  -1997  88  11  689
1477481003.459:  -1938  88  11  689
1477481003.459:  -1882  88  11  689
1477481003.459:  -1864  88  11  689
1477481003.459:  -1867  88  11  689
1477481003.460:  -1864  88  11  689
1477481003.460:  -1864  88  11  689
1477481003.460:  -1888  88  11  689
1477481003.460:  -1914  88  11  689
1477481003.460:  -1901  88  11  689
1477481003.460:  -1846  88  11  689
1477481003.460:  -1801  88  11  689
1477481003.461:  -1804  88  11  689
1477481003.465:  -1837  88  11  689
1477481003.465:  -1853  88  11  689
1477481003.467:  -1856  88  11  689
1477481003.468:  -1893  88  11  689
1477481003.469:  -1972  88  11  689
1477481003.477:  -2037  88  11  689
1477481003.477:  -2023  88  11  689
1477481003.479:  -1922  88  11  689
1477481003.479:  -1767  88  11  689
1477481003.481:  -1570  88  11  689
1477481003.482:  -1316  88  11  689
1477481003.483:  -1038  88  11  689
1477481003.499:   -822  88  11  689
1477481003.500:   -725  88  11  689
1477481003.501:   -686  88  11  689
1477481003.501:   -566  88  11  689
1477481003.502:   -295  88  11  689
1477481003.503:     77  88  11  689
1477481003.503:    467  88  11  689
1477481003.504:    875  88  11  689
1477481003.505:   1370  88  11  689
1477481003.505:   1979  88  11  689
1477481003.506:   2637  88  11  689
1477481003.507:   3230  88  11  689
1477481003.518:   3667  88  11  689
1477481003.518:   3881  88  11  689
1477481003.518:   3803  88  11  689
1477481003.518:   3390  88  11  689
1477481003.518:   2678  88  11  689
1477481003.520:   1779  88  11  689
1477481003.521:    794  88  11  689
1477481003.528:   -245  88  11  689
1477481003.528:  -1319  88  11  689
1477481003.528:  -2333  88  11  689
1477481003.529:  -3132  88  11  689
1477481003.531:  -3622  88  11  689
1477481003.536:  -3849  88  11  689
1477481003.537:  -3918  88  11  689
1477481003.539:  -3879  88  11  689
1477481003.540:  -3712  88  11  689
1477481003.541:  -3414  88  11  689
1477481003.543:  -3083  88  11  689
1477481003.545:  -2844  88  11  689
1477481003.547:  -2729  88  11  689
1477481003.561:  -2665  88  11  689
1477481003.562:  -2563  88  11  689
1477481003.563:  -2422  88  11  689
1477481003.563:  -2312  88  11  689
1477481003.564:  -2278  88  11  689
1477481003.565:  -2295  88  11  689
1477481003.566:  -2307  88  11  689
1477481003.566:  -2281  88  11  689
1477481003.567:  -2224  88  11  689
1477481003.567:  -2152  88  11  689
1477481003.570:  -2076  88  11  689
1477481003.572:  -2010  88  11  689
1477481003.584:  -1966  88  11  689
1477481003.586:  -1946  88  11  689
1477481003.586:  -1940  88  11  689
1477481003.587:  -1941  88  11  689
1477481003.587:  -1950  88  11  689
1477481003.588:  -1968  88  11  689
1477481003.588:  -1979  88  11  689
1477481003.589:  -1966  88  11  689
1477481003.589:  -1925  88  11  689
1477481003.590:  -1875  88  11  689
1477481003.593:  -1838  88  11  689
1477481003.595:  -1819  88  11  689
1477481003.598:  -1807  88  11  689
1477481003.602:  -1796  88  11  689
1477481003.602:  -1792  88  11  689
1477481003.602:  -1793  88  11  689
1477481003.603:  -1792  88  11  689
1477481003.606:  -1780  88  11  689
1477481003.607:  -1754  88  11  689
1477481003.611:  -1722  88  11  689
1477481003.612:  -1695  88  11  689
1477481003.613:  -1691  88  11  689
1477481003.617:  -1715  88  11  689
1477481003.617:  -1751  88  11  689
1477481003.648:  -1771  88  11  689
1477481003.649:  -1756  88  11  689
1477481003.649:  -1713  88  11  689
1477481003.649:  -1675  88  11  689
1477481003.649:  -1672  88  11  689
1477481003.649:  -1700  88  11  689
1477481003.649:  -1731  88  11  689
1477481003.649:  -1735  88  11  689
1477481003.650:  -1707  88  11  689
1477481003.650:  -1663  88  11  689
1477481003.650:  -1633  88  11  689
1477481003.650:  -1634  88  11  689
1477481003.650:  -1656  88  11  689
1477481003.650:  -1665  88  11  689
1477481003.650:  -1634  88  11  689
1477481003.651:  -1573  88  11  689
1477481003.651:  -1515  88  11  689
1477481003.653:  -1483  88  11  689
1477481003.655:  -1465  88  11  689
1477481003.657:  -1445  88  11  689
1477481003.661:  -1424  88  11  689
1477481003.662:  -1418  88  11  689
1477481003.664:  -1429  88  11  689
1477481003.667:  -1436  88  11  689
1477481003.683:  -1415  88  11  689
1477481003.683:  -1371  88  11  689
1477481003.683:  -1341  88  11  689
1477481003.683:  -1351  88  11  689
1477481003.683:  -1392  88  11  689
1477481003.683:  -1424  88  11  689
1477481003.684:  -1416  88  11  689
1477481003.684:  -1370  88  11  689
1477481003.684:  -1313  88  11  689
1477481003.685:  -1270  88  11  689
1477481003.689:  -1249  88  11  689
1477481003.689:  -1240  88  11  689
1477481003.691:  -1219  88  11  689
1477481003.692:  -1161  88  11  689
1477481003.694:  -1068  88  11  689
1477481003.701:   -977  88  11  689
1477481003.705:   -939  88  11  689
1477481003.705:   -974  88  11  689
1477481003.705:  -1039  88  11  689
1477481003.705:  -1069  88  11  689
1477481003.706:  -1039  88  11  689
1477481003.707:   -992  88  11  689
1477481003.710:   -992  88  11  689
1477481003.712:  -1038  88  11  689
1477481003.717:  -1066  88  11  689
1477481003.718:  -1008  88  11  689
1477481003.720:   -877  88  11  689
1477481003.721:   -754  88  11  689
1477481003.722:   -708  88  11  689
1477481003.723:   -722  88  11  689
1477481003.726:   -726  88  11  689
1477481003.727:   -668  88  11  689
1477481003.732:   -575  88  11  689
1477481003.732:   -525  88  11  689
1477481003.755:   -558  88  11  689
1477481003.755:   -642  88  11  689
1477481003.755:   -695  88  11  689
1477481003.756:   -674  88  11  689
1477481003.756:   -607  88  11  689
1477481003.756:   -558  88  11  689
1477481003.756:   -563  88  11  689
1477481003.756:   -604  88  11  689
1477481003.756:   -629  88  11  689
1477481003.757:   -615  88  11  689
1477481003.757:   -581  88  11  689
1477481003.757:   -563  88  11  689
1477481003.757:   -574  88  11  689
1477481003.759:   -594  88  11  689
1477481003.763:   -597  88  11  689
1477481003.763:   -574  88  11  689
1477481003.765:   -540  86  11  689
1477481003.766:   -524  86  11  689
1477481003.769:   -537  86  11  689
1477481003.772:   -568  86  11  689
1477481003.780:   -599  86  11  689
1477481003.780:   -620  86  11  689
1477481003.781:   -640  86  11  689
1477481003.781:   -666  86  11  689
1477481003.782:   -693  86  11  689
1477481003.785:   -717  86  11  689
1477481003.786:   -749  86  11  689
1477481003.787:   -812  86  11  689
1477481003.790:   -908  86  11  689
1477481003.790:   -995  86  11  689
1477481003.794:  -1037  86  11  689
1477481003.794:  -1039  86  11  689
1477481003.806:  -1058  86  11  689
1477481003.806:  -1130  86  11  689
1477481003.807:  -1227  86  11  689
1477481003.807:  -1291  86  11  689
1477481003.807:  -1298  86  11  689
1477481003.807:  -1290  86  11  689
1477481003.809:  -1326  86  11  689
1477481003.810:  -1415  86  11  689
1477481003.811:  -1520  86  11  689
1477481003.813:  -1601  86  11  689
1477481003.817:  -1651  86  11  689
1477481003.818:  -1688  86  11  689
1477481003.822:  -1719  86  11  689
1477481003.822:  -1742  86  11  689
1477481003.837:  -1757  86  11  689
1477481003.838:  -1776  86  11  689
1477481003.838:  -1802  86  11  689
1477481003.838:  -1816  86  11  689
1477481003.839:  -1795  86  11  689
1477481003.839:  -1749  86  11  689
1477481003.839:  -1725  86  11  689
1477481003.840:  -1761  86  11  689
1477481003.841:  -1844  86  11  689
1477481003.841:  -1913  86  11  689
1477481003.845:  -1920  86  11  689
1477481003.848:  -1877  86  11  689
1477481003.855:  -1848  86  11  689
1477481003.855:  -1876  86  11  689
1477481003.856:  -1937  86  11  689
1477481003.856:  -1965  86  11  689
1477481003.859:  -1923  86  11  689
1477481003.859:  -1851  86  11  689
1477481003.860:  -1817  86  11  689
1477481003.861:  -1848  86  11  689
1477481003.862:  -1900  86  11  689
1477481003.865:  -1907  86  11  689
1477481003.868:  -1845  86  11  689
1477481003.872:  -1750  86  11  689
1477481003.872:  -1677  86  11  689
1477481003.873:  -1652  86  11  689
1477481003.874:  -1657  86  11  689
1477481003.876:  -1667  86  11  689
1477481003.879:  -1665  86  11  689
1477481003.881:  -1661  86  11  689
1477481003.907:  -1666  86  11  689
1477481003.907:  -1688  86  11  689
1477481003.907:  -1730  86  11  689
1477481003.907:  -1775  86  11  689
1477481003.908:  -1803  86  11  689
1477481003.908:  -1798  86  11  689
1477481003.908:  -1762  86  11  689
1477481003.908:  -1712  86  11  689
1477481003.909:  -1673  86  11  689
1477481003.909:  -1652  86  11  689
1477481003.909:  -1641  86  11  689
1477481003.909:  -1624  86  11  689
1477481003.909:  -1601  86  11  689
1477481003.911:  -1584  86  11  689
1477481003.918:  -1588  86  11  689
1477481003.919:  -1610  86  11  689
1477481003.927:  -1631  86  11  689
1477481003.927:  -1632  86  11  689
1477481003.927:  -1610  86  11  689
1477481003.928:  -1583  86  11  689
1477481003.928:  -1569  86  11  689
1477481003.928:  -1568  86  11  689
1477481003.928:  -1569  86  11  689
1477481003.929:  -1559  86  11  689
1477481003.930:  -1538  86  11  689
1477481003.931:  -1523  86  11  689
1477481003.934:  -1532  86  11  689
1477481003.936:  -1571  86  11  689
1477481003.942:  -1628  86  11  689
1477481003.942:  -1679  86  11  689
1477481003.943:  -1709  86  11  689
1477481003.945:  -1719  86  11  689
1477481003.945:  -1723  86  11  689
1477481003.948:  -1722  86  11  689
1477481003.951:  -1700  86  11  689
1477481003.953:  -1644  86  11  689
1477481003.954:  -1574  86  11  689
1477481003.956:  -1523  86  11  689
1477481003.961:  -1509  86  11  689
1477481003.962:  -1509  86  11  689
1477481003.964:  -1489  86  11  689
1477481003.965:  -1452  86  11  689
1477481003.979:  -1444  86  11  689
1477481003.980:  -1492  86  11  689
1477481003.981:  -1563  86  11  689
1477481003.982:  -1597  86  11  689
1477481003.982:  -1571  86  11  689
1477481003.984:  -1532  86  11  689
1477481003.984:  -1525  86  11  689
1477481003.985:  -1541  86  11  689
1477481003.985:  -1532  86  11  689
1477481003.985:  -1483  86  11  689
1477481003.987:  -1443  86  11  689
1477481003.987:  -1452  86  11  689
1477481003.998:  -1486  86  11  689
1477481003.999:  -1484  86  11  689
1477481004.001:  -1428  86  11  689
1477481004.002:  -1377  86  11  689
1477481004.003:  -1389  86  11  689
1477481004.004:  -1451  86  11  689
1477481004.005:  -1495  86  11  689
1477481004.006:  -1472  86  11  689
1477481004.007:  -1398  86  11  689
1477481004.007:  -1327  86  11  689
1477481004.010:  -1297  86  11  689
1477481004.011:  -1308  86  11  689
1477481004.014:  -1345  86  11  689
1477481004.015:  -1373  86  11  689
1477481004.017:  -1359  86  11  689
1477481004.018:  -1295  86  11  689
1477481004.019:  -1226  86  11  689
1477481004.022:  -1217  86  11  689
1477481004.040:  -1289  86  11  689
1477481004.040:  -1371  86  11  689
1477481004.040:  -1376  86  11  689
1477481004.040:  -1293  86  11  689
1477481004.040:  -1206  86  11  689
1477481004.040:  -1207  86  11  689
1477481004.041:  -1308  86  11  689
1477481004.061:  -1433  86  11  689
1477481004.065:  -1493  86  11  689
1477481004.141:  -1458  86  11  689
1477481004.152:  -1370  86  11  689
1477481004.153:  -1300  86  11  689
1477481004.153:  -1293  86  11  689
1477481004.153:  -1344  86  11  689
1477481004.153:  -1394  86  11  689
1477481004.154:  -1385  86  11  689
1477481004.154:  -1305  86  11  689
1477481004.154:  -1213  86  11  689
1477481004.154:  -1178  86  11  689
1477481004.154:  -1211  86  11  689
1477481004.155:  -1260  86  11  689
1477481004.155:  -1281  86  11  689
1477481004.155:  -1279  86  11  689
1477481004.155:  -1289  86  11  689
1477481004.155:  -1323  86  11  689
1477481004.156:  -1346  86  11  689
1477481004.156:  -1338  86  11  689
1477481004.156:  -1333  86  11  689
1477481004.156:  -1381  86  11  689
1477481004.156:  -1479  86  11  689
1477481004.157:  -1559  86  11  689
1477481004.157:  -1559  86  11  689
1477481004.157:  -1503  86  11  689
1477481004.158:  -1476  86  11  689
1477481004.158:  -1527  86  11  689
1477481004.161:  -1617  86  11  689
1477481004.161:  -1657  86  11  689
1477481004.161:  -1612  86  11  689
1477481004.161:  -1534  86  11  689
1477481004.162:  -1504  86  11  689
1477481004.162:  -1544  86  11  689
1477481004.162:  -1602  86  11  689
1477481004.162:  -1625  86  11  689
1477481004.162:  -1600  86  11  689
1477481004.162:  -1563  86  11  689
1477481004.163:  -1551  86  11  689
1477481004.163:  -1568  86  11  689
1477481004.163:  -1593  86  11  689
1477481004.163:  -1610  86  11  689
1477481004.169:  -1620  86  11  689
1477481004.169:  -1628  86  11  689
1477481004.169:  -1637  86  11  689
1477481004.170:  -1639  86  11  689
1477481004.170:  -1629  86  11  689
1477481004.171:  -1602  86  11  689
1477481004.171:  -1567  86  11  689
1477481004.171:  -1546  86  11  689
1477481004.171:  -1545  86  11  689
1477481004.171:  -1544  86  11  689
1477481004.171:  -1516  86  11  689
1477481004.172:  -1467  86  11  689
1477481004.172:  -1434  86  11  689
1477481004.172:  -1453  86  11  689
1477481004.172:  -1525  86  11  689
1477481004.173:  -1608  86  11  689
1477481004.173:  -1649  86  11  689
1477481004.173:  -1629  86  11  689
1477481004.173:  -1572  86  11  689
1477481004.173:  -1538  86  11  689
1477481004.174:  -1572  86  11  689
1477481004.174:  -1665  86  11  689
1477481004.174:  -1757  86  11  689
1477481004.174:  -1786  86  11  689
1477481004.174:  -1751  86  11  689
1477481004.175:  -1700  86  11  689
1477481004.187:  -1658  86  11  689
1477481004.195:  -1594  86  11  689
1477481004.196:  -1474  86  11  689
1477481004.196:  -1328  86  11  689
1477481004.196:  -1217  86  11  689
1477481004.196:  -1154  86  11  689
1477481004.196:  -1081  86  11  689
1477481004.196:   -932  86  11  689
1477481004.196:   -697  86  11  689
1477481004.197:   -399  86  11  689
1477481004.197:    -21  86  11  689
1477481004.197:    480  86  11  689
1477481004.197:   1085  86  11  689
1477481004.199:   1699  86  11  689
1477481004.200:   2263  86  11  689
1477481004.201:   2810  86  11  689
1477481004.205:   3368  86  11  689
1477481004.206:   3819  86  11  689
1477481004.207:   3945  86  11  689
1477481004.208:   3642  86  11  689
1477481004.210:   3047  86  11  689
1477481004.212:   2378  86  11  689
1477481004.216:   1683  86  11  689
1477481004.231:    836  86  11  689
1477481004.231:   -226  86  11  689
1477481004.231:  -1315  86  11  689
1477481004.232:  -2144  86  11  689
1477481004.232:  -2614  86  11  689
1477481004.232:  -2886  86  11  689
1477481004.233:  -3145  86  11  689
1477481004.233:  -3379  86  11  689
1477481004.233:  -3433  86  11  689
1477481004.234:  -3233  86  11  689
1477481004.238:  -2910  86  11  689
1477481004.238:  -2662  86  11  689
1477481004.240:  -2560  86  11  689
1477481004.241:  -2532  86  11  689
1477481004.254:  -2475  86  11  689
1477481004.254:  -2371  86  11  689
1477481004.254:  -2263  86  11  689
1477481004.254:  -2193  86  11  689
1477481004.254:  -2168  86  11  689
1477481004.255:  -2176  86  11  689
1477481004.255:  -2195  86  11  689
1477481004.257:  -2201  86  11  689
1477481004.260:  -2176  86  11  689
1477481004.263:  -2117  86  11  689
1477481004.266:  -2035  86  11  689
1477481004.267:  -1955  86  11  689
1477481004.270:  -1895  86  11  689
1477481004.270:  -1861  86  11  689
1477481004.271:  -1857  86  11  689
1477481004.274:  -1869  86  11  689
1477481004.275:  -1871  86  11  689
1477481004.280:  -1853  86  11  689
1477481004.280:  -1830  86  11  689
1477481004.283:  -1822  86  11  689
1477481004.301:  -1831  86  11  689
1477481004.301:  -1837  86  11  689
1477481004.302:  -1824  86  11  689
1477481004.302:  -1791  86  11  689
1477481004.303:  -1752  86  11  689
1477481004.303:  -1716  86  11  689
1477481004.303:  -1684  86  11  689
1477481004.304:  -1651  86  11  689
1477481004.304:  -1613  86  11  689
1477481004.305:  -1564  86  11  689
1477481004.305:  -1513  86  11  689
1477481004.306:  -1483  86  11  689
1477481004.307:  -1497  86  11  689
1477481004.308:  -1545  86  11  689
1477481004.310:  -1586  86  11  689
1477481004.315:  -1587  86  11  689
1477481004.331:  -1556  86  11  689
1477481004.331:  -1530  86  11  689
1477481004.332:  -1533  86  11  689
1477481004.333:  -1543  86  11  689
1477481004.334:  -1529  86  11  689
1477481004.334:  -1488  86  11  689
1477481004.335:  -1449  86  11  689
1477481004.336:  -1437  86  11  689
1477481004.336:  -1449  86  11  689
1477481004.337:  -1460  86  11  689
1477481004.339:  -1451  86  11  689
1477481004.340:  -1421  86  11  689
1477481004.354:  -1390  86  11  689
1477481004.354:  -1381  86  11  689
1477481004.355:  -1413  86  11  689
1477481004.355:  -1468  86  11  689
1477481004.355:  -1503  86  11  689
1477481004.355:  -1482  86  11  689
1477481004.355:  -1417  86  11  689
1477481004.356:  -1359  86  11  689
1477481004.387:  -1346  86  11  689
1477481004.387:  -1364  86  11  689
1477481004.387:  -1374  86  11  689
1477481004.387:  -1356  86  11  689
1477481004.388:  -1335  86  11  689
1477481004.390:  -1327  86  11  689
1477481004.390:  -1319  86  11  689
1477481004.391:  -1287  86  11  689
1477481004.391:  -1245  86  11  689
1477481004.394:  -1237  86  11  689
1477481004.405:  -1275  86  11  689
1477481004.405:  -1311  86  11  689
1477481004.406:  -1290  86  11  689
1477481004.406:  -1213  86  11  689
1477481004.406:  -1132  86  11  689
1477481004.406:  -1106  86  11  689
1477481004.406:  -1138  86  11  689
1477481004.406:  -1179  86  11  689
1477481004.406:  -1192  86  11  689
1477481004.406:  -1170  86  11  689
1477481004.407:  -1131  86  11  689
1477481004.407:  -1096  86  11  689
1477481004.407:  -1073  86  11  689
1477481004.407:  -1078  86  11  689
1477481004.407:  -1114  86  11  689
1477481004.407:  -1164  86  11  689
1477481004.407:  -1191  86  11  689
1477481004.408:  -1164  86  11  689
1477481004.408:  -1095  86  11  689
1477481004.411:  -1042  86  11  689
1477481004.415:  -1049  86  11  689
1477481004.415:  -1099  86  11  689
1477481004.417:  -1118  86  11  689
1477481004.419:  -1052  86  11  689
1477481004.420:   -922  86  11  689
1477481004.422:   -809  86  11  689
1477481004.424:   -766  86  11  689
1477481004.430:   -777  86  11  689
1477481004.441:   -787  86  11  689
1477481004.442:   -767  86  11  689
1477481004.442:   -740  86  11  689
1477481004.442:   -745  86  11  689
1477481004.443:   -789  86  11  690
1477481004.443:   -842  86  11  690
1477481004.445:   -870  86  11  690
1477481004.446:   -851  86  11  690
1477481004.447:   -791  86  11  690
1477481004.447:   -727  86  11  690
1477481004.448:   -695  86  11  690
1477481004.450:   -700  86  11  690
1477481004.452:   -712  86  11  690
1477481004.453:   -694  86  11  690
1477481004.464:   -648  86  11  690
1477481004.465:   -613  86  11  690
1477481004.465:   -622  86  11  690
1477481004.465:   -657  86  11  690
1477481004.466:   -671  86  11  690
1477481004.467:   -650  86  11  690
1477481004.469:   -626  86  11  690
1477481004.469:   -635  86  11  690
1477481004.471:   -676  86  11  690
1477481004.475:   -727  86  11  690
1477481004.476:   -780  86  11  690
1477481004.477:   -843  86  11  690
1477481004.479:   -911  86  11  690
1477481004.484:   -966  86  11  690
1477481004.485:  -1000  86  11  690
1477481004.485:  -1035  86  11  690
1477481004.489:  -1093  86  11  690
1477481004.490:  -1169  86  11  690
1477481004.491:  -1239  86  11  690
1477481004.492:  -1293  86  11  690
1477481004.495:  -1351  86  11  690
1477481004.497:  -1429  86  11  690
1477481004.499:  -1516  86  11  690
1477481004.503:  -1586  86  11  690
1477481004.516:  -1632  86  11  690
1477481004.518:  -1673  86  11  690
1477481004.519:  -1717  86  11  690
1477481004.520:  -1747  86  11  690
1477481004.520:  -1740  86  11  690
1477481004.521:  -1700  86  11  690
1477481004.522:  -1662  86  11  690
1477481004.522:  -1660  86  11  690
1477481004.534:  -1701  86  11  690
1477481004.534:  -1757  86  11  690
1477481004.534:  -1792  86  11  690
1477481004.534:  -1791  86  11  690
1477481004.535:  -1778  86  11  690
1477481004.535:  -1800  86  11  690
1477481004.535:  -1875  86  11  690
1477481004.535:  -1959  86  11  690
1477481004.536:  -1973  86  11  690
1477481004.536:  -1889  86  11  690
1477481004.537:  -1763  86  11  690
1477481004.544:  -1688  86  11  690
1477481004.544:  -1704  86  11  690
1477481004.544:  -1764  86  11  690
1477481004.549:  -1787  86  11  690
1477481004.549:  -1743  86  11  690
1477481004.552:  -1674  86  11  690
1477481004.552:  -1638  86  11  690
1477481004.554:  -1653  86  11  690
1477481004.556:  -1699  86  11  690
1477481004.557:  -1741  86  11  690
1477481004.562:  -1757  86  11  690
1477481004.562:  -1740  86  11  690
1477481004.564:  -1697  86  11  690
1477481004.564:  -1659  86  11  690
1477481004.571:  -1656  86  11  690
1477481004.581:  -1696  86  11  690
1477481004.582:  -1755  86  11  690
1477481004.584:  -1798  86  11  690
1477481004.586:  -1808  86  11  690
1477481004.587:  -1794  86  11  690
1477481004.590:  -1778  86  11  690
1477481004.601:  -1778  86  11  690
1477481004.602:  -1806  86  11  690
1477481004.602:  -1864  86  11  690
1477481004.603:  -1925  86  11  690
1477481004.603:  -1940  86  11  690
1477481004.603:  -1876  86  11  690
1477481004.603:  -1766  86  11  690
1477481004.604:  -1696  86  11  690
1477481004.604:  -1724  86  11  690
1477481004.604:  -1805  86  11  690
1477481004.605:  -1833  86  11  690
1477481004.605:  -1750  86  11  690
1477481004.605:  -1622  86  11  690
1477481004.607:  -1573  86  11  690
1477481004.619:  -1649  86  11  690
1477481004.619:  -1773  86  11  690
1477481004.620:  -1823  86  11  690
1477481004.620:  -1760  86  11  690
1477481004.620:  -1659  86  11  690
1477481004.621:  -1623  86  11  690
1477481004.622:  -1677  86  11  690
1477481004.625:  -1753  86  11  690
1477481004.626:  -1774  86  11  690
1477481004.628:  -1732  86  11  690
1477481004.628:  -1688  86  11  690
1477481004.629:  -1707  86  11  690
1477481004.632:  -1786  86  11  690
1477481004.635:  -1865  86  11  690
1477481004.639:  -1893  86  11  690
1477481004.640:  -1881  86  11  690
1477481004.641:  -1876  86  11  690
1477481004.642:  -1901  86  11  690
1477481004.644:  -1922  86  11  690
1477481004.646:  -1883  86  11  690
1477481004.648:  -1777  86  11  690
1477481004.652:  -1658  86  11  690
1477481004.669:  -1590  86  11  690
1477481004.669:  -1590  86  11  690
1477481004.670:  -1611  86  11  690
1477481004.670:  -1603  86  11  690
1477481004.671:  -1566  86  11  690
1477481004.672:  -1554  86  11  690
1477481004.672:  -1623  86  11  690
1477481004.672:  -1767  86  11  690
1477481004.673:  -1906  86  11  690
1477481004.673:  -1954  86  11  690
1477481004.673:  -1889  86  11  690
1477481004.674:  -1776  86  11  690
1477481004.676:  -1693  86  11  690
1477481004.680:  -1652  86  11  690
1477481004.681:  -1595  86  11  690
1477481004.682:  -1479  86  11  690
1477481004.684:  -1339  86  11  690
1477481004.685:  -1253  86  11  690
1477481004.696:  -1252  86  11  690
1477481004.697:  -1291  86  11  690
1477481004.697:  -1316  86  11  690
1477481004.697:  -1330  86  11  690
1477481004.698:  -1363  86  11  690
1477481004.698:  -1416  86  11  690
1477481004.700:  -1446  86  11  690
1477481004.701:  -1419  86  11  690
1477481004.703:  -1355  86  11  690
1477481004.704:  -1291  86  11  690
1477481004.707:  -1237  86  11  690
1477481004.708:  -1180  86  11  690
1477481004.717:  -1125  86  11  690
1477481004.717:  -1101  86  11  690
1477481004.718:  -1113  86  11  690
1477481004.719:  -1125  86  11  690
1477481004.719:  -1106  86  11  690
1477481004.721:  -1071  86  11  690
1477481004.722:  -1062  86  11  690
1477481004.727:  -1080  86  11  690
1477481004.727:  -1080  86  11  690
1477481004.729:  -1025  86  11  690
1477481004.730:   -940  86  11  690
1477481004.732:   -892  86  11  690
1477481004.735:   -903  86  11  690
1477481004.737:   -943  86  11  690
1477481004.740:   -976  86  11  690
1477481004.741:   -997  86  11  690
1477481004.752:  -1023  86  11  690
1477481004.826:  -1054  86  11  690
1477481004.848:  -1065  86  11  690
1477481004.849:  -1050  86  11  690
1477481004.849:  -1040  86  11  690
1477481004.854:  -1056  86  11  690
1477481004.854:  -1082  86  11  690
1477481004.855:  -1081  86  11  690
1477481004.855:  -1047  86  11  690
1477481004.856:  -1023  86  11  690
1477481004.856:  -1042  86  11  690
1477481004.857:  -1087  86  11  690
1477481004.857:  -1105  86  11  690
1477481004.859:  -1074  86  11  690
1477481004.859:  -1025  86  11  690
1477481004.860:  -1005  86  11  690
1477481004.860:  -1020  86  11  690
1477481004.860:  -1034  86  11  690
1477481004.860:  -1016  86  11  690
1477481004.861:   -985  86  11  690
1477481004.861:   -977  86  11  690
1477481004.861:  -1000  86  11  690
1477481004.861:  -1026  86  11  690
1477481004.861:  -1030  86  11  690
1477481004.879:  -1024  86  11  690
1477481004.879:  -1037  86  11  690
1477481004.880:  -1079  86  11  690
1477481004.881:  -1125  86  11  690
1477481004.882:  -1142  86  11  690
1477481004.882:  -1127  86  11  690
1477481004.882:  -1111  86  11  690
1477481004.882:  -1120  86  11  690
1477481004.882:  -1155  86  11  690
1477481004.882:  -1193  86  11  690
1477481004.883:  -1203  86  11  690
1477481004.883:  -1175  86  11  690
1477481004.883:  -1135  86  11  690
1477481004.883:  -1123  86  11  690
1477481004.883:  -1151  86  11  690
1477481004.883:  -1185  86  11  690
1477481004.883:  -1176  86  11  690
1477481004.884:  -1112  86  11  690
1477481004.884:  -1038  86  11  690
1477481004.884:  -1008  86  11  690
1477481004.884:  -1027  86  11  690
1477481004.885:  -1056  86  11  690
1477481004.885:  -1051  86  11  690
1477481004.885:  -1012  86  11  690
1477481004.885:   -968  86  11  690
1477481004.885:   -949  86  11  690
1477481004.885:   -964  86  11  690
1477481004.885:  -1008  86  11  690
1477481004.886:  -1062  86  11  690
1477481004.886:  -1096  86  11  690
1477481004.887:  -1094  86  11  690
1477481004.889:  -1068  86  11  690
1477481004.889:  -1058  86  11  690
1477481004.890:  -1110  86  11  690
1477481004.891:  -1219  86  11  690
1477481004.892:  -1331  86  11  690
1477481004.893:  -1386  86  11  690
1477481004.893:  -1370  86  11  690
1477481004.894:  -1321  86  11  690
1477481004.894:  -1265  86  11  690
1477481004.895:  -1179  86  11  690
1477481004.895:   -999  86  11  690
1477481004.896:   -709  86  11  690
1477481004.896:   -382  86  11  690
1477481004.898:   -147  86  11  690
1477481004.899:    -67  86  11  690
1477481004.899:    -81  86  11  690
1477481004.901:    -62  86  11  690
1477481004.914:     53  86  11  690
1477481004.914:    220  86  11  690
1477481004.914:    390  86  11  690
1477481004.914:    598  86  11  690
1477481004.914:    929  86  11  690
1477481004.914:   1402  86  11  690
1477481004.915:   1915  86  11  690
1477481004.915:   2361  86  11  690
1477481004.915:   2722  86  11  690
1477481004.915:   3034  86  11  690
1477481004.915:   3244  86  11  690
1477481004.915:   3193  86  11  690
1477481004.915:   2765  86  11  690
1477481004.915:   2021  86  11  690
1477481004.916:   1151  86  11  690
1477481004.916:    298  86  11  690
1477481004.918:   -540  86  11  690
1477481004.918:  -1399  86  11  690
1477481004.920:  -2215  86  11  690
1477481004.920:  -2835  86  11  690
1477481004.922:  -3169  86  11  690
1477481004.925:  -3268  86  11  690
1477481004.937:  -3243  86  11  690
1477481004.938:  -3142  86  11  690
1477481004.938:  -2929  86  11  690
1477481004.939:  -2595  86  11  690
1477481004.939:  -2231  86  11  690
1477481004.939:  -1965  86  11  690
1477481004.939:  -1841  86  11  690
1477481004.942:  -1779  86  11  690
1477481004.945:  -1668  86  11  690
1477481004.946:  -1486  86  11  690
1477481004.946:  -1315  86  11  690
1477481004.950:  -1254  86  11  690
