timestamp: ADC HeartRate4sAverage HeartRate30sAverage HRV8sAverage
1477482488.756:   1056  77  10  769
1477482488.757:   1008  77  10  769
1477482488.757:    949  77  10  769
1477482488.757:    896  77  10  769
1477482488.757:    862  77  10  769
1477482488.758:    855  77  10  769
1477482488.758:    880  77  10  769
1477482488.758:    930  77  10  769
1477482488.758:    991  77  10  769
1477482488.759:   1041  77  10  769
1477482488.759:   1065  77  10  769
1477482488.759:   1065  77  10  769
1477482488.759:   1055  77  10  769
1477482488.766:   1033  77  10  769
1477482488.831:   1000  77  10  769
1477482488.832:    977  77  10  769
1477482488.832:    992  77  10  769
1477482488.832:   1036  77  10  769
1477482488.832:   1081  77  10  769
1477482488.832:   1099  77  10  769
1477482488.833:   1084  77  10  769
1477482488.833:   1045  77  10  769
1477482488.833:   1003  77  10  769
1477482488.833:    953  77  10  769
1477482488.833:    903  77  10  769
1477482488.834:    880  77  10  769
1477482488.834:    906  77  10  769
1477482488.834:    961  77  10  769
1477482488.834:   1011  77  10  769
1477482488.835:   1035  77  10  769
1477482488.835:   1039  77  10  769
1477482488.835:   1025  77  10  769
1477482488.835:    994  77  10  769
1477482488.835:    936  77  10  769
1477482488.835:    861  77  10  769
1477482488.836:    801  77  10  769
1477482488.836:    789  77  10  769
1477482488.836:    810  77  10  769
1477482488.836:    837  77  10  769
1477482488.836:    851  77  10  769
1477482488.837:    856  77  10  769
1477482488.837:    843  77  10  769
1477482488.837:    809  77  10  769
1477482488.837:    748  77  10  769
1477482488.837:    672  77  10  769
1477482488.837:    616  77  10  769
1477482488.850:    615  77  10  769
1477482488.850:    665  77  10  769
1477482488.851:    731  77  10  769
1477482488.851:    787  77  10  769
1477482488.851:    816  77  10  769
1477482488.851:    818  77  10  769
1477482488.852:    801  77  10  769
1477482488.852:    783  77  10  769
1477482488.852:    775  77  10  769
1477482488.852:    787  77  10  769
1477482488.852:    818  77  10  769
1477482488.852:    859  77  10  769
1477482488.852:    900  77  10  769
1477482488.853:    951  77  10  769
1477482488.856:   1015  77  10  769
1477482488.857:   1067  77  10  769
1477482488.861:   1077  77  10  769
1477482488.861:   1049  77  10  769
1477482488.878:   1003  77  10  769
1477482488.889:    977  77  10  769
1477482488.890:    992  77  10  769
1477482488.891:   1048  77  10  769
1477482488.901:   1126  77  10  769
1477482488.901:   1210  77  10  769
1477482488.901:   1277  77  10  769
1477482488.901:   1302  77  10  769
1477482488.902:   1282  77  10  769
1477482488.902:   1245  77  10  769
1477482488.902:   1202  77  10  769
1477482488.903:   1153  77  10  769
1477482488.903:   1095  77  10  769
1477482488.903:   1044  77  10  769
1477482488.903:   1018  77  10  769
1477482488.904:   1025  77  10  769
1477482488.904:   1035  77  10  769
1477482488.904:   1010  77  10  769
1477482488.905:    941  77  10  769
1477482488.905:    870  77  10  769
1477482488.906:    827  77  10  769
1477482488.906:    821  77  10  769
1477482488.906:    842  77  10  769
1477482488.906:    884  77  10  769
1477482488.908:    932  77  10  769
1477482488.911:    974  77  10  769
1477482488.926:    994  77  10  769
1477482488.927:    984  77  10  769
1477482488.928:    941  77  10  769
1477482488.929:    871  77  10  769
1477482488.930:    766  77  10  769
1477482488.931:    635  77  10  769
1477482488.931:    523  77  10  769
1477482488.932:    493  77  10  769
1477482488.932:    557  77  10  769
1477482488.933:    660  77  10  769
1477482488.934:    730  77  10  769
1477482488.934:    734  77  10  769
1477482488.936:    700  77  10  769
1477482488.939:    677  77  10  769
1477482488.954:    672  77  10  769
1477482488.955:    639  77  10  769
1477482488.956:    559  77  10  769
1477482488.957:    481  77  10  769
1477482488.958:    474  77  10  769
1477482488.959:    559  77  10  769
1477482488.959:    690  77  10  769
1477482488.960:    792  77  10  769
1477482488.961:    823  77  10  769
1477482488.961:    810  77  10  769
1477482488.962:    797  77  10  769
1477482488.962:    789  77  10  769
1477482488.964:    770  77  10  769
1477482488.965:    738  77  10  769
1477482488.975:    715  77  10  769
1477482488.976:    719  77  10  769
1477482488.976:    744  77  10  769
1477482488.976:    753  77  10  769
1477482488.977:    717  77  10  769
1477482488.977:    647  77  10  769
1477482488.980:    595  77  10  769
1477482488.984:    580  77  10  769
1477482488.993:    589  77  10  769
1477482488.993:    592  77  10  769
1477482488.993:    590  77  10  769
1477482488.994:    596  77  10  769
1477482488.994:    631  77  10  769
1477482488.994:    684  77  10  769
1477482489.000:    719  77  10  769
1477482489.000:    708  77  10  769
1477482489.000:    663  77  10  769
1477482489.002:    601  77  10  769
1477482489.003:    549  77  10  769
1477482489.005:    531  77  10  769
1477482489.007:    574  77  10  769
1477482489.012:    661  77  10  769
1477482489.022:    757  77  10  769
1477482489.022:    816  77  10  769
1477482489.022:    822  77  10  769
1477482489.023:    793  77  10  769
1477482489.023:    775  77  10  769
1477482489.023:    776  77  10  769
1477482489.027:    776  77  10  769
1477482489.028:    762  77  10  769
1477482489.039:    758  77  10  769
1477482489.039:    785  77  10  769
1477482489.039:    837  77  10  769
1477482489.039:    876  77  10  769
1477482489.039:    871  77  10  769
1477482489.039:    823  77  10  769
1477482489.039:    765  77  10  769
1477482489.041:    710  77  10  769
1477482489.042:    639  77  10  769
1477482489.044:    538  77  10  769
1477482489.046:    449  77  10  769
1477482489.051:    432  77  10  769
1477482489.058:    510  77  10  769
1477482489.058:    636  77  10  769
1477482489.058:    726  77  10  769
1477482489.059:    727  77  10  769
1477482489.060:    679  77  10  769
1477482489.060:    643  77  10  769
1477482489.064:    611  77  10  769
1477482489.069:    508  77  10  769
1477482489.076:    286  77  10  769
1477482489.078:    -19  77  10  769
1477482489.079:   -330  77  10  769
1477482489.079:   -613  77  10  769
1477482489.080:   -919  77  10  769
1477482489.089:  -1316  77  10  769
1477482489.089:  -1775  77  10  769
1477482489.090:  -2181  77  10  769
1477482489.090:  -2448  77  10  769
1477482489.091:  -2557  77  10  769
1477482489.091:  -2509  77  10  769
1477482489.091:  -2270  77  10  769
1477482489.092:  -1820  77  10  769
1477482489.092:  -1221  77  10  769
1477482489.093:   -636  77  10  769
1477482489.095:   -203  77  10  769
1477482489.099:     79  77  10  769
1477482489.099:    323  77  10  769
1477482489.112:    582  77  10  769
1477482489.112:    789  77  10  769
1477482489.112:    845  77  10  769
1477482489.113:    757  77  10  769
1477482489.113:    635  77  10  769
1477482489.113:    602  77  10  769
1477482489.113:    675  77  10  769
1477482489.115:    792  77  10  769
1477482489.116:    895  77  10  769
1477482489.119:    984  77  10  769
1477482489.119:   1070  77  10  769
1477482489.124:   1146  77  10  769
1477482489.126:   1213  77  10  769
1477482489.127:   1297  77  10  769
1477482489.128:   1413  77  10  769
1477482489.129:   1536  77  10  769
1477482489.132:   1604  77  10  769
1477482489.133:   1569  77  10  769
1477482489.148:   1452  77  10  769
1477482489.149:   1335  77  10  769
1477482489.149:   1279  77  10  769
1477482489.149:   1280  77  10  769
1477482489.150:   1299  77  10  769
1477482489.150:   1317  77  10  769
1477482489.150:   1344  77  10  769
1477482489.154:   1390  77  10  769
1477482489.154:   1437  77  10  769
1477482489.155:   1444  77  10  769
1477482489.165:   1388  77  10  769
1477482489.166:   1302  77  10  769
1477482489.166:   1240  77  10  769
1477482489.166:   1224  77  10  769
1477482489.166:   1237  77  10  769
1477482489.168:   1262  77  10  769
1477482489.168:   1294  77  10  769
1477482489.170:   1335  77  10  769
1477482489.171:   1375  77  10  769
1477482489.174:   1386  77  10  769
1477482489.176:   1351  77  10  769
1477482489.177:   1290  77  10  769
1477482489.180:   1241  77  10  769
1477482489.185:   1208  77  10  769
1477482489.186:   1181  77  10  769
1477482489.186:   1163  77  10  769
1477482489.189:   1171  77  10  769
1477482489.190:   1210  77  10  769
1477482489.191:   1266  77  10  769
1477482489.194:   1311  77  10  769
1477482489.196:   1325  77  10  769
1477482489.197:   1311  77  10  769
1477482489.212:   1284  77  10  769
1477482489.212:   1236  77  10  769
1477482489.213:   1172  77  10  769
1477482489.215:   1121  77  10  769
1477482489.216:   1124  77  10  769
1477482489.217:   1182  77  10  769
1477482489.217:   1255  77  10  769
1477482489.219:   1294  77  10  769
1477482489.219:   1275  77  10  769
1477482489.219:   1218  77  10  769
1477482489.222:   1172  77  10  769
1477482489.222:   1148  77  10  769
1477482489.223:   1132  77  10  769
1477482489.225:   1108  77  10  769
1477482489.235:   1083  77  10  769
1477482489.236:   1070  77  10  769
1477482489.237:   1089  77  10  770
1477482489.238:   1129  77  10  770
1477482489.239:   1155  77  10  770
1477482489.239:   1132  77  10  770
1477482489.240:   1073  77  10  770
1477482489.242:   1013  77  10  770
1477482489.242:    981  77  10  770
1477482489.244:    980  77  10  770
1477482489.255:   1004  77  10  770
1477482489.256:   1035  77  10  770
1477482489.256:   1071  77  10  770
1477482489.257:   1111  77  10  770
1477482489.257:   1136  77  10  770
1477482489.258:   1121  77  10  770
1477482489.259:   1070  77  10  770
1477482489.263:   1005  77  10  770
1477482489.273:    946  77  10  770
1477482489.274:    901  77  10  770
1477482489.275:    876  77  10  770
1477482489.276:    870  77  10  770
1477482489.276:    881  77  10  770
1477482489.277:    900  77  10  770
1477482489.279:    905  77  10  770
1477482489.279:    872  77  10  770
1477482489.280:    808  77  10  770
1477482489.285:    737  77  10  770
1477482489.292:    674  77  10  770
1477482489.293:    631  77  10  770
1477482489.294:    618  77  10  770
1477482489.294:    643  77  10  770
1477482489.295:    689  77  10  770
1477482489.296:    729  77  10  770
1477482489.297:    735  77  10  770
1477482489.298:    706  77  10  770
1477482489.299:    666  77  10  770
1477482489.300:    641  77  10  770
1477482489.305:    612  77  10  770
1477482489.306:    565  77  10  770
1477482489.307:    520  77  10  770
1477482489.309:    526  77  10  770
1477482489.311:    598  77  10  770
1477482489.312:    703  77  10  770
1477482489.327:    778  77  10  770
1477482489.328:    795  77  10  770
1477482489.329:    785  77  10  770
1477482489.329:    800  77  10  770
1477482489.330:    839  77  10  770
1477482489.331:    866  77  10  770
1477482489.331:    869  77  10  770
1477482489.332:    889  77  10  770
1477482489.332:    960  77  10  770
1477482489.333:   1069  77  10  770
1477482489.334:   1151  77  10  770
1477482489.337:   1160  77  10  770
1477482489.348:   1114  77  10  770
1477482489.348:   1078  77  10  770
1477482489.348:   1069  77  10  770
1477482489.348:   1052  77  10  770
1477482489.349:   1008  77  10  770
1477482489.349:    980  77  10  770
1477482489.349:   1014  77  10  770
1477482489.350:   1102  77  10  770
1477482489.353:   1177  77  10  770
1477482489.356:   1179  77  10  770
1477482489.360:   1119  77  10  770
1477482489.361:   1068  77  10  770
1477482489.362:   1056  77  10  770
1477482489.363:   1049  77  10  770
1477482489.369:   1009  77  10  770
1477482489.369:    960  77  10  770
1477482489.369:    955  77  10  770
1477482489.373:   1013  77  10  770
1477482489.394:   1091  77  10  770
1477482489.396:   1128  77  10  770
1477482489.397:   1103  77  10  770
1477482489.402:   1051  77  10  770
1477482489.402:   1014  77  10  770
1477482489.403:    989  77  10  770
1477482489.414:    963  77  10  770
1477482489.418:    950  77  10  770
1477482489.419:    971  77  10  770
1477482489.419:   1027  77  10  770
1477482489.419:   1091  77  10  770
1477482489.419:   1128  77  10  770
1477482489.419:   1122  77  10  770
1477482489.420:   1089  77  10  770
1477482489.420:   1054  77  10  770
1477482489.420:   1017  77  10  770
1477482489.421:    982  77  10  770
1477482489.421:    965  77  10  770
1477482489.421:    988  77  10  770
1477482489.421:   1039  77  10  770
1477482489.422:   1094  77  10  770
1477482489.422:   1127  77  10  770
1477482489.432:   1132  77  10  770
1477482489.433:   1120  77  10  770
1477482489.433:   1105  77  10  770
1477482489.433:   1077  77  10  770
1477482489.434:   1030  77  10  770
1477482489.434:    988  77  10  770
1477482489.434:    987  77  10  770
1477482489.435:   1036  77  10  770
1477482489.435:   1111  77  10  770
1477482489.435:   1165  77  10  770
1477482489.436:   1166  77  10  770
1477482489.437:   1121  77  10  770
1477482489.441:   1076  77  10  770
1477482489.443:   1048  77  10  770
1477482489.450:   1031  77  10  770
1477482489.451:   1008  77  10  770
1477482489.451:    988  77  10  770
1477482489.451:    993  77  10  770
1477482489.451:   1037  77  10  770
1477482489.455:   1097  77  10  770
1477482489.455:   1132  77  10  770
1477482489.457:   1112  77  10  770
1477482489.459:   1060  77  10  770
1477482489.460:   1004  77  10  770
1477482489.462:    959  77  10  770
1477482489.465:    927  77  10  770
1477482489.470:    917  77  10  770
1477482489.471:    933  77  10  770
1477482489.473:    969  77  10  770
1477482489.474:   1001  77  10  770
1477482489.475:   1002  77  10  770
1477482489.476:    969  77  10  770
1477482489.490:    930  77  10  770
1477482489.491:    906  77  10  770
1477482489.491:    879  77  10  770
1477482489.491:    841  77  10  770
1477482489.491:    815  77  10  770
1477482489.491:    836  77  10  770
1477482489.491:    901  77  10  770
1477482489.492:    971  77  10  770
1477482489.494:    995  77  10  770
1477482489.499:    957  77  10  770
1477482489.499:    899  77  10  770
1477482489.502:    862  77  10  770
1477482489.502:    840  77  10  770
1477482489.504:    810  77  10  770
1477482489.513:    780  77  10  770
1477482489.514:    778  77  10  770
1477482489.514:    815  77  10  770
1477482489.514:    870  77  10  770
1477482489.516:    903  77  10  770
1477482489.517:    897  77  10  770
1477482489.518:    871  77  10  770
1477482489.519:    856  77  10  770
1477482489.521:    838  77  10  770
1477482489.524:    803  77  10  770
1477482489.532:    767  77  10  770
1477482489.532:    776  77  10  770
1477482489.532:    845  77  10  770
1477482489.533:    942  77  10  770
1477482489.533:   1004  77  10  770
1477482489.535:    993  77  10  770
1477482489.538:    931  77  10  770
1477482489.600:    879  77  10  770
1477482489.600:    857  77  10  770
1477482489.600:    850  77  10  770
1477482489.600:    840  77  10  770
1477482489.600:    843  77  10  770
1477482489.600:    881  77  10  770
1477482489.601:    959  77  10  770
1477482489.601:   1044  77  10  770
1477482489.601:   1089  77  10  770
1477482489.601:   1071  77  10  770
1477482489.601:   1018  77  10  770
1477482489.601:    959  77  10  770
1477482489.602:    910  77  10  770
1477482489.602:    872  77  10  770
1477482489.602:    852  77  10  770
1477482489.613:    849  77  10  770
1477482489.613:    859  77  10  770
1477482489.613:    872  77  10  770
1477482489.614:    875  77  10  770
1477482489.614:    863  77  10  770
1477482489.614:    850  77  10  770
1477482489.615:    840  77  10  770
1477482489.615:    825  77  10  770
1477482489.615:    803  77  10  770
1477482489.615:    797  77  10  770
1477482489.616:    828  77  10  770
1477482489.616:    899  77  10  770
1477482489.616:    977  77  10  770
1477482489.617:   1011  77  10  770
1477482489.617:    968  77  10  770
1477482489.617:    876  77  10  770
1477482489.618:    798  77  10  770
1477482489.618:    764  77  10  770
1477482489.618:    763  77  10  770
1477482489.618:    767  77  10  770
1477482489.619:    768  77  10  770
1477482489.619:    784  77  10  770
1477482489.620:    836  77  10  770
1477482489.620:    908  77  10  770
1477482489.631:    946  77  10  770
1477482489.631:    924  77  10  770
1477482489.632:    872  77  10  770
1477482489.632:    831  77  10  770
1477482489.632:    826  77  10  770
1477482489.633:    853  77  10  770
1477482489.633:    898  77  10  770
1477482489.634:    955  77  10  770
1477482489.634:   1030  77  10  770
1477482489.634:   1111  77  10  770
1477482489.635:   1165  77  10  770
1477482489.637:   1173  77  10  770
1477482489.648:   1154  77  10  770
1477482489.649:   1128  77  10  770
1477482489.649:   1117  77  10  770
1477482489.650:   1134  77  10  770
1477482489.650:   1181  77  10  770
1477482489.651:   1238  77  10  770
1477482489.651:   1287  77  10  770
1477482489.653:   1307  77  10  770
1477482489.657:   1298  77  10  770
1477482489.658:   1267  77  10  770
1477482489.659:   1232  77  10  770
1477482489.660:   1180  77  10  770
1477482489.668:   1098  77  10  770
1477482489.668:   1006  77  10  770
1477482489.669:    955  77  10  770
1477482489.669:    961  77  10  770
1477482489.670:   1003  77  10  770
1477482489.677:   1032  77  10  770
1477482489.679:   1024  77  10  770
1477482489.679:    991  77  10  770
1477482489.693:    965  77  10  770
1477482489.694:    946  77  10  770
1477482489.694:    910  77  10  770
1477482489.695:    854  77  10  770
1477482489.696:    808  77  10  770
1477482489.696:    797  77  10  770
1477482489.697:    811  77  10  770
1477482489.698:    809  77  10  770
1477482489.698:    767  77  10  770
1477482489.699:    689  77  10  770
1477482489.699:    616  77  10  770
1477482489.703:    568  77  10  770
1477482489.732:    532  77  10  770
1477482489.732:    501  77  10  770
1477482489.733:    490  77  10  770
1477482489.734:    517  77  10  770
1477482489.734:    569  77  10  770
1477482489.735:    615  77  10  770
1477482489.736:    626  77  10  770
1477482489.736:    590  77  10  770
1477482489.737:    527  77  10  770
1477482489.737:    469  77  10  770
1477482489.738:    429  77  10  770
1477482489.738:    422  77  10  770
1477482489.739:    464  77  10  770
1477482489.739:    551  77  10  770
1477482489.739:    651  77  10  770
1477482489.739:    740  77  10  770
1477482489.739:    802  77  10  770
1477482489.740:    829  77  10  770
1477482489.740:    818  77  10  770
1477482489.740:    769  77  10  770
1477482489.741:    679  77  10  770
1477482489.743:    571  77  10  770
1477482489.761:    487  77  10  770
1477482489.762:    463  77  10  770
1477482489.763:    494  77  10  770
1477482489.763:    552  77  10  770
1477482489.764:    598  77  10  770
1477482489.764:    607  77  10  770
1477482489.765:    582  77  10  770
1477482489.766:    554  77  10  770
1477482489.766:    532  77  10  770
1477482489.767:    507  77  10  770
1477482489.768:    478  77  10  770
1477482489.768:    465  77  10  770
1477482489.769:    481  77  10  770
1477482489.772:    530  77  10  770
1477482489.775:    583  77  10  770
1477482489.776:    613  77  10  770
1477482489.791:    612  77  10  770
1477482489.791:    605  77  10  770
1477482489.791:    603  77  10  770
1477482489.791:    596  77  10  770
1477482489.791:    579  77  10  770
1477482489.792:    583  77  10  770
1477482489.792:    631  77  10  770
1477482489.792:    719  77  10  770
1477482489.792:    804  77  10  770
1477482489.793:    837  77  10  770
1477482489.796:    802  77  10  770
1477482489.799:    741  77  10  770
1477482489.803:    698  77  10  770
1477482489.803:    681  77  10  770
1477482489.816:    671  77  10  770
1477482489.816:    661  77  10  770
1477482489.816:    657  77  10  770
1477482489.816:    672  77  10  770
1477482489.816:    698  77  10  770
1477482489.818:    705  77  10  770
1477482489.818:    658  77  10  770
1477482489.820:    559  77  10  770
1477482489.820:    444  77  10  770
1477482489.822:    351  77  10  770
1477482489.824:    318  77  10  770
1477482489.826:    359  77  10  770
1477482489.831:    452  77  10  770
1477482489.832:    558  77  10  770
1477482489.853:    646  77  10  770
1477482489.854:    703  77  10  770
1477482489.855:    703  77  10  770
1477482489.855:    603  77  10  770
1477482489.856:    369  77  10  770
1477482489.856:      1  77  10  770
1477482489.857:   -435  77  10  770
1477482489.858:   -866  77  10  770
1477482489.859:  -1278  77  10  770
1477482489.859:  -1712  77  10  770
1477482489.860:  -2171  77  10  770
1477482489.860:  -2592  77  10  770
1477482489.861:  -2899  77  10  770
1477482489.862:  -3064  77  10  770
1477482489.873:  -3088  77  10  770
1477482489.874:  -2960  77  10  770
1477482489.875:  -2631  77  10  770
1477482489.875:  -2089  77  10  770
1477482489.876:  -1426  77  10  770
1477482489.877:   -807  77  10  770
1477482489.877:   -326  77  10  770
1477482489.878:     39  77  10  770
1477482489.878:    349  77  10  770
1477482489.878:    605  77  10  770
1477482489.879:    748  77  10  770
1477482489.883:    723  77  10  770
1477482489.893:    565  77  10  770
1477482489.894:    393  77  10  770
1477482489.895:    337  77  10  770
1477482489.895:    429  77  10  770
1477482489.896:    617  77  10  770
1477482489.896:    807  77  10  770
1477482489.897:    942  77  10  770
1477482489.901:   1025  77  10  770
1477482489.913:   1101  77  10  770
1477482489.914:   1188  77  10  770
1477482489.915:   1254  77  10  770
1477482489.917:   1276  77  10  770
1477482489.917:   1277  77  10  770
1477482489.918:   1285  77  10  770
1477482489.918:   1297  77  10  770
1477482489.918:   1282  77  10  770
1477482489.919:   1231  77  10  770
1477482489.919:   1183  77  10  770
1477482489.919:   1186  77  10  770
1477482489.920:   1233  77  10  770
1477482489.921:   1258  77  10  770
1477482489.923:   1221  77  10  770
1477482489.933:   1162  77  10  770
1477482489.933:   1147  77  10  770
1477482489.934:   1188  77  10  770
1477482489.934:   1241  77  10  770
1477482489.935:   1254  77  10  770
1477482489.936:   1225  77  10  770
1477482489.937:   1199  77  10  770
1477482489.940:   1202  77  10  770
1477482489.951:   1202  77  10  770
1477482489.952:   1164  77  10  770
1477482489.953:   1102  77  10  770
1477482489.953:   1065  77  10  770
1477482489.954:   1081  77  10  770
1477482489.954:   1141  77  10  770
1477482489.957:   1192  77  10  770
1477482489.958:   1194  77  10  770
1477482489.959:   1150  77  10  770
1477482489.960:   1099  77  10  770
1477482489.961:   1060  77  10  770
1477482489.962:   1035  77  10  770
1477482489.972:   1017  77  10  770
1477482489.972:   1017  77  10  770
1477482489.973:   1038  77  10  770
1477482489.973:   1078  77  10  770
1477482489.973:   1115  77  10  770
1477482489.975:   1121  77  10  770
1477482489.976:   1089  77  10  770
1477482489.979:   1043  77  10  770
1477482489.982:    995  77  10  770
1477482489.984:    949  77  10  770
1477482489.993:    908  77  10  770
1477482489.993:    890  77  10  770
1477482489.993:    909  77  10  770
1477482489.993:    966  77  10  770
1477482489.993:   1031  77  10  770
1477482489.994:   1060  77  10  770
1477482489.996:   1027  77  10  770
1477482490.000:    966  77  10  770
1477482490.001:    916  77  10  770
1477482490.002:    897  77  10  770
1477482490.006:    904  77  10  770
1477482490.006:    929  77  10  792
1477482490.009:    968  77  10  792
1477482490.009:   1019  77  10  792
1477482490.012:   1066  77  10  792
1477482490.013:   1088  77  10  792
1477482490.018:   1074  77  10  792
1477482490.018:   1046  77  10  792
1477482490.020:   1016  77  10  792
1477482490.021:    975  77  10  792
1477482490.023:    917  77  10  792
1477482490.028:    875  77  10  792
1477482490.042:    885  77  10  792
1477482490.063:    951  77  10  792
1477482490.065:   1026  77  10  792
1477482490.065:   1050  77  10  792
1477482490.065:   1003  77  10  792
1477482490.065:    926  77  10  792
1477482490.065:    864  77  10  792
1477482490.066:    816  77  10  792
1477482490.066:    763  77  10  792
1477482490.066:    711  77  10  792
1477482490.066:    686  77  10  792
1477482490.070:    697  77  10  792
1477482490.071:    724  77  10  792
1477482490.071:    724  77  10  792
1477482490.073:    680  77  10  792
1477482490.074:    611  77  10  792
1477482490.074:    549  77  10  792
1477482490.074:    493  77  10  792
1477482490.075:    435  77  10  792
1477482490.075:    387  77  10  792
1477482490.075:    370  77  10  792
1477482490.075:    385  77  10  792
1477482490.075:    411  77  10  792
1477482490.076:    418  77  10  792
1477482490.077:    391  77  10  792
1477482490.079:    343  77  10  792
1477482490.080:    304  77  10  792
1477482490.081:    279  77  10  792
1477482490.094:    268  77  10  792
1477482490.094:    273  77  10  792
1477482490.094:    310  77  10  792
1477482490.094:    382  77  10  792
1477482490.095:    484  77  10  792
1477482490.095:    591  77  10  792
1477482490.095:    665  77  10  792
1477482490.097:    681  77  10  792
1477482490.100:    659  77  10  792
1477482490.100:    630  77  10  792
1477482490.106:    619  77  10  792
1477482490.107:    631  77  10  792
1477482490.107:    657  77  10  792
1477482490.110:    687  77  10  792
1477482490.110:    724  77  10  792
1477482490.114:    776  77  10  792
1477482490.115:    822  77  10  792
1477482490.116:    832  77  10  792
1477482490.119:    803  77  10  792
1477482490.123:    755  77  10  792
1477482490.132:    717  77  10  792
1477482490.133:    706  77  10  792
1477482490.133:    726  77  10  792
1477482490.134:    769  77  10  792
1477482490.134:    823  77  10  792
1477482490.135:    873  77  10  792
1477482490.137:    897  77  10  792
1477482490.137:    882  77  10  792
1477482490.139:    851  77  10  792
1477482490.140:    831  77  10  792
1477482490.150:    822  77  10  792
1477482490.170:    811  77  10  792
1477482490.171:    794  77  10  792
1477482490.174:    792  77  10  792
1477482490.176:    824  77  10  792
1477482490.177:    890  77  10  792
1477482490.178:    946  77  10  792
1477482490.178:    941  77  10  792
1477482490.179:    873  77  10  792
1477482490.179:    789  77  10  792
1477482490.180:    731  77  10  792
1477482490.180:    718  77  10  792
1477482490.185:    737  77  10  792
1477482490.185:    770  77  10  792
1477482490.187:    811  77  10  792
1477482490.188:    872  77  10  792
1477482490.189:    943  77  10  792
1477482490.190:    991  77  10  792
1477482490.191:    987  77  10  792
1477482490.192:    947  77  10  792
1477482490.193:    897  77  10  792
1477482490.194:    869  77  10  792
1477482490.211:    867  77  10  792
1477482490.212:    880  77  10  792
1477482490.213:    890  77  10  792
1477482490.214:    902  77  10  792
1477482490.215:    922  77  10  792
1477482490.216:    938  77  10  792
1477482490.216:    926  77  10  792
1477482490.217:    881  77  10  792
1477482490.218:    810  77  10  792
1477482490.219:    745  77  10  792
1477482490.220:    717  77  10  792
1477482490.220:    736  77  10  792
1477482490.220:    780  77  10  792
1477482490.220:    823  77  10  792
1477482490.221:    853  77  10  792
1477482490.221:    863  77  10  792
1477482490.221:    845  77  10  792
1477482490.221:    806  77  10  792
1477482490.222:    754  77  10  792
1477482490.223:    704  77  10  792
1477482490.226:    676  77  10  792
1477482490.226:    679  77  10  792
1477482490.247:    696  77  10  792
1477482490.247:    714  77  10  792
1477482490.248:    736  77  10  792
1477482490.249:    758  77  10  792
1477482490.249:    758  77  10  792
1477482490.249:    727  77  10  792
1477482490.250:    676  77  10  792
1477482490.250:    632  77  10  792
1477482490.250:    621  77  10  792
1477482490.251:    645  77  10  792
1477482490.251:    683  77  10  792
1477482490.251:    718  77  10  792
1477482490.251:    755  77  10  792
1477482490.254:    790  77  10  792
1477482490.256:    801  77  10  792
1477482490.261:    769  77  10  792
1477482490.264:    710  77  10  792
1477482490.266:    654  77  10  792
1477482490.266:    629  77  10  792
1477482490.267:    642  77  10  792
1477482490.285:    677  77  10  792
1477482490.286:    719  77  10  792
1477482490.286:    771  77  10  792
1477482490.287:    824  77  10  792
1477482490.287:    848  77  10  792
1477482490.288:    822  77  10  792
1477482490.289:    760  77  10  792
1477482490.289:    686  77  10  792
1477482490.290:    632  77  10  792
1477482490.291:    611  77  10  792
1477482490.291:    618  77  10  792
1477482490.292:    640  77  10  792
1477482490.293:    672  77  10  792
1477482490.293:    701  77  10  792
1477482490.314:    704  77  10  792
1477482490.388:    673  77  10  792
1477482490.409:    633  77  10  792
1477482490.409:    603  77  10  792
1477482490.410:    596  77  10  792
1477482490.410:    606  77  10  792
1477482490.410:    633  77  10  792
1477482490.410:    669  77  10  792
1477482490.410:    720  77  10  792
1477482490.410:    776  77  10  792
1477482490.411:    811  77  10  792
1477482490.411:    801  77  10  792
1477482490.411:    762  77  10  792
1477482490.411:    708  77  10  792
1477482490.411:    658  77  10  792
1477482490.412:    622  77  10  792
1477482490.412:    622  77  10  792
1477482490.412:    660  77  10  792
1477482490.412:    726  77  10  792
1477482490.412:    783  77  10  792
1477482490.412:    792  77  10  792
1477482490.413:    740  77  10  792
1477482490.413:    661  77  10  792
1477482490.413:    592  77  10  792
1477482490.413:    544  77  10  792
1477482490.413:    513  77  10  792
1477482490.413:    506  77  10  792
1477482490.413:    526  77  10  792
1477482490.414:    564  77  10  792
1477482490.414:    600  77  10  792
1477482490.414:    617  77  10  792
1477482490.414:    611  77  10  792
1477482490.414:    603  77  10  792
1477482490.414:    597  77  10  792
1477482490.415:    571  77  10  792
1477482490.415:    524  77  10  792
1477482490.419:    492  77  10  792
1477482490.419:    513  77  10  792
1477482490.420:    577  77  10  792
1477482490.421:    641  77  10  792
1477482490.421:    668  77  10  792
1477482490.421:    653  77  10  792
1477482490.421:    627  77  10  792
1477482490.422:    608  77  10  792
1477482490.422:    580  77  10  792
1477482490.422:    545  77  10  792
1477482490.423:    529  77  10  792
1477482490.423:    565  77  10  792
1477482490.423:    642  77  10  792
1477482490.423:    724  77  10  792
1477482490.423:    774  77  10  792
1477482490.423:    782  77  10  792
1477482490.436:    763  77  10  792
1477482490.436:    743  77  10  792
1477482490.437:    722  77  10  792
1477482490.437:    698  77  10  792
1477482490.438:    681  77  10  792
1477482490.438:    694  77  10  792
1477482490.440:    744  77  10  792
1477482490.442:    823  77  10  792
1477482490.443:    894  77  10  792
1477482490.443:    914  77  10  792
1477482490.443:    873  77  10  792
1477482490.444:    821  77  10  792
1477482490.444:    798  77  10  792
1477482490.444:    806  77  10  792
1477482490.455:    809  77  10  792
1477482490.456:    795  77  10  792
1477482490.456:    786  77  10  792
1477482490.456:    824  77  10  792
1477482490.456:    902  77  10  792
1477482490.457:    954  77  10  792
1477482490.457:    923  77  10  792
1477482490.457:    836  77  10  792
1477482490.458:    758  77  10  792
1477482490.458:    722  77  10  792
1477482490.458:    703  77  10  792
1477482490.458:    673  77  10  792
1477482490.459:    639  77  10  792
1477482490.459:    644  77  10  792
1477482490.459:    697  77  10  792
1477482490.460:    746  77  10  792
1477482490.460:    730  77  10  792
1477482490.460:    662  77  10  792
1477482490.460:    601  77  10  792
1477482490.461:    586  77  10  792
1477482490.464:    602  77  10  792
1477482490.468:    616  77  10  792
1477482490.475:    611  77  10  792
1477482490.475:    603  77  10  792
1477482490.475:    608  77  10  792
1477482490.475:    602  77  10  792
1477482490.476:    543  77  10  792
1477482490.479:    432  77  10  792
1477482490.480:    320  77  10  792
1477482490.485:    246  77  10  792
1477482490.485:    220  77  10  792
1477482490.485:    233  77  10  792
1477482490.492:    270  77  10  792
1477482490.492:    325  77  10  792
1477482490.499:    395  77  10  792
1477482490.499:    452  77  10  792
1477482490.499:    456  77  10  792
1477482490.499:    397  77  10  792
1477482490.499:    308  77  10  792
1477482490.502:    219  77  10  792
1477482490.504:    147  77  10  792
1477482490.505:     99  77  10  792
1477482490.507:     92  77  10  792
1477482490.513:    135  77  10  792
1477482490.520:    223  77  10  792
1477482490.520:    318  77  10  792
1477482490.520:    375  77  10  792
1477482490.520:    387  77  10  792
1477482490.520:    388  77  10  792
1477482490.521:    389  77  10  792
1477482490.527:    378  77  10  792
1477482490.527:    347  77  10  792
1477482490.527:    324  77  10  792
1477482490.529:    335  77  10  792
1477482490.539:    378  77  10  792
1477482490.539:    407  77  10  792
1477482490.542:    385  77  10  792
1477482490.542:    326  77  10  792
1477482490.542:    289  77  10  792
1477482490.542:    294  77  10  792
1477482490.544:    313  77  10  792
1477482490.545:    313  77  10  792
1477482490.551:    310  77  10  792
1477482490.552:    343  77  10  792
1477482490.562:    430  77  10  792
1477482490.563:    536  77  10  792
1477482490.563:    601  77  10  792
1477482490.563:    592  77  10  792
1477482490.563:    542  77  10  792
1477482490.563:    497  77  10  792
1477482490.563:    474  77  10  792
1477482490.567:    470  77  10  792
1477482490.568:    478  77  10  792
1477482490.569:    495  77  10  792
1477482490.570:    524  77  10  792
1477482490.572:    562  77  10  792
1477482490.574:    590  77  10  792
1477482490.576:    589  77  10  792
1477482490.584:    567  77  10  792
1477482490.584:    537  77  10  792
1477482490.584:    502  77  10  792
1477482490.586:    470  77  10  792
1477482490.586:    466  77  10  792
1477482490.588:    505  77  10  792
1477482490.590:    573  77  10  792
1477482490.596:    632  77  10  792
1477482490.603:    641  77  10  792
1477482490.604:    595  77  10  792
1477482490.604:    529  77  10  792
1477482490.606:    476  77  10  792
1477482490.607:    418  77  10  792
1477482490.607:    336  77  10  792
1477482490.608:    254  77  10  792
1477482490.609:    231  77  10  792
1477482490.610:    294  77  10  792
1477482490.613:    414  77  10  792
1477482490.614:    516  77  10  792
1477482490.617:    548  77  10  792
1477482490.617:    523  77  10  792
1477482490.625:    475  77  10  792
1477482490.626:    377  77  10  792
1477482490.627:    175  77  10  792
1477482490.627:   -154  77  10  792
1477482490.630:   -553  77  10  792
1477482490.631:   -951  77  10  792
1477482490.631:  -1324  77  10  792
1477482490.636:  -1727  77  10  792
1477482490.638:  -2215  77  10  792
1477482490.639:  -2757  77  10  792
1477482490.641:  -3230  77  10  792
1477482490.642:  -3532  77  10  792
1477482490.643:  -3631  77  10  792
1477482490.645:  -3530  77  10  792
1477482490.651:  -3213  77  10  792
1477482490.660:  -2684  77  10  792
1477482490.661:  -2008  77  10  792
1477482490.661:  -1325  77  10  792
1477482490.661:   -765  77  10  792
1477482490.662:   -354  77  10  792
1477482490.662:    -16  77  10  792
1477482490.664:    292  77  10  792
1477482490.666:    522  77  10  792
1477482490.667:    600  77  10  792
1477482490.668:    526  77  10  792
1477482490.692:    391  77  10  792
1477482490.692:    311  77  10  792
1477482490.692:    340  77  10  792
1477482490.693:    450  77  10  792
1477482490.693:    572  77  10  792
1477482490.693:    668  77  10  792
1477482490.693:    732  77  10  792
1477482490.694:    788  77  10  792
1477482490.694:    871  77  10  792
1477482490.694:   1002  77  10  792
1477482490.695:   1152  77  10  792
1477482490.695:   1261  77  10  792
1477482490.695:   1298  77  10  792
1477482490.695:   1276  77  10  792
1477482490.697:   1222  77  10  792
1477482490.699:   1155  77  10  792
1477482490.700:   1079  77  10  792
1477482490.704:   1004  77  10  792
1477482490.705:    970  77  10  792
1477482490.707:   1017  77  10  792
1477482490.708:   1120  77  10  792
1477482490.708:   1194  77  10  792
1477482490.711:   1180  77  10  792
1477482490.713:   1090  77  10  792
1477482490.718:    995  77  10  792
1477482490.718:    950  77  10  792
1477482490.726:    953  77  10  792
1477482490.727:    949  77  10  792
1477482490.728:    913  77  10  792
1477482490.728:    878  77  10  792
1477482490.728:    889  77  10  792
1477482490.732:    937  77  10  792
1477482490.732:    988  77  10  792
1477482490.733:   1011  77  10  792
1477482490.735:   1007  77  10  792
1477482490.736:    988  77  10  792
1477482490.747:    961  77  10  792
1477482490.747:    912  77  10  792
1477482490.748:    850  77  10  792
1477482490.748:    816  77  10  792
1477482490.748:    842  77  10  792
1477482490.749:    902  77  10  792
1477482490.750:    957  77  10  792
1477482490.753:    980  77  10  792
1477482490.755:    981  77  10  792
1477482490.760:    971  77  10  792
1477482490.763:    957  77  10  792
1477482490.765:    927  77  10  792
1477482490.766:    887  77  10  792
1477482490.768:    862  77  10  792
1477482490.769:    875  77  10  792
1477482490.770:    910  77  10  792
1477482490.774:    940  77  10  792
1477482490.774:    954  77  10  792
1477482490.791:    954  77  10  792
1477482490.791:    937  77  10  792
1477482490.792:    898  77  10  772
1477482490.793:    831  77  10  772
1477482490.794:    746  77  10  772
1477482490.794:    681  77  10  772
1477482490.795:    674  77  10  772
1477482490.795:    714  77  10  772
1477482490.806:    764  77  10  772
1477482490.806:    789  77  10  772
1477482490.806:    786  77  10  772
1477482490.806:    769  77  10  772
1477482490.806:    754  77  10  772
1477482490.807:    732  77  10  772
1477482490.807:    679  77  10  772
1477482490.807:    605  77  10  772
1477482490.808:    563  77  10  772
1477482490.809:    593  77  10  772
1477482490.810:    675  77  10  772
1477482490.811:    747  77  10  772
1477482490.814:    755  77  10  772
1477482490.815:    702  77  10  772
1477482490.820:    639  77  10  772
1477482490.821:    610  77  10  772
1477482490.823:    596  77  10  772
1477482490.824:    562  77  10  772
1477482490.826:    509  77  10  772
1477482490.828:    475  77  10  772
1477482490.830:    485  77  10  772
1477482490.833:    525  77  10  772
1477482490.834:    547  77  10  772
1477482490.835:    513  77  10  772
1477482490.837:    432  77  10  772
1477482490.839:    346  77  10  772
1477482490.842:    278  77  10  772
1477482490.843:    228  77  10  772
1477482490.847:    191  77  10  772
1477482490.847:    176  77  10  772
1477482490.862:    186  77  10  772
1477482490.863:    224  77  10  772
1477482490.867:    268  77  10  772
1477482490.871:    289  77  10  772
1477482490.881:    270  77  10  772
1477482490.884:    223  77  10  772
1477482490.884:    163  77  10  772
1477482490.885:    109  77  10  772
1477482490.885:     82  77  10  772
1477482490.885:     99  77  10  772
1477482490.886:    151  77  10  772
1477482490.886:    213  77  10  772
1477482490.886:    255  77  10  772
1477482490.886:    265  77  10  772
1477482490.887:    259  77  10  772
1477482490.887:    271  77  10  772
1477482490.888:    297  77  10  772
1477482490.888:    306  77  10  772
1477482490.898:    295  77  10  772
1477482490.898:    309  77  10  772
1477482490.898:    389  77  10  772
1477482490.899:    518  77  10  772
1477482490.899:    626  77  10  772
1477482490.899:    657  77  10  772
1477482490.899:    621  77  10  772
1477482490.899:    585  77  10  772
1477482490.903:    578  77  10  772
1477482490.903:    567  77  10  772
1477482490.904:    527  77  10  772
1477482490.905:    494  77  10  772
1477482490.909:    516  77  10  772
1477482490.910:    589  77  10  772
1477482490.911:    660  77  10  772
1477482490.918:    675  77  10  772
1477482490.924:    638  77  10  772
1477482490.924:    599  77  10  772
1477482490.924:    578  77  10  772
1477482490.925:    549  77  10  772
1477482490.925:    502  77  10  772
1477482490.930:    470  77  10  772
1477482490.930:    493  77  10  772
1477482490.932:    558  77  10  772
1477482490.935:    621  77  10  772
1477482490.935:    647  77  10  772
1477482490.944:    641  77  10  772
1477482490.944:    627  77  10  772
1477482490.944:    615  77  10  772
1477482490.944:    575  77  10  772
1477482490.944:    511  77  10  772
1477482490.944:    466  77  10  772
1477482490.946:    486  77  10  772
1477482490.952:    554  77  10  772
1477482490.953:    619  77  10  772
1477482490.954:    642  77  10  772
1477482490.974:    629  77  10  772
1477482490.974:    607  77  10  772
1477482490.992:    596  77  10  772
1477482490.993:    574  77  10  772
1477482490.995:    540  77  10  772
1477482490.995:    529  77  10  772
1477482490.998:    574  77  10  772
1477482491.006:    651  77  10  772
1477482491.017:    714  77  10  772
1477482491.019:    735  77  10  772
1477482491.020:    732  77  10  772
1477482491.021:    732  77  10  772
1477482491.022:    741  77  10  772
1477482491.022:    719  77  10  772
1477482491.024:    651  77  10  772
1477482491.024:    575  77  10  772
1477482491.025:    550  77  10  772
1477482491.026:    585  77  10  772
1477482491.037:    637  77  10  772
1477482491.038:    661  77  10  772
1477482491.039:    648  77  10  772
1477482491.042:    613  77  10  772
1477482491.042:    578  77  10  772
1477482491.043:    537  77  10  772
1477482491.043:    479  77  10  772
1477482491.043:    421  77  10  772
1477482491.044:    405  77  10  772
1477482491.044:    445  77  10  772
1477482491.055:    511  77  10  772
1477482491.057:    559  77  10  772
1477482491.057:    560  77  10  772
1477482491.058:    521  77  10  772
1477482491.059:    481  77  10  772
1477482491.059:    464  77  10  772
1477482491.060:    451  77  10  772
1477482491.060:    418  77  10  772
1477482491.061:    380  77  10  772
1477482491.061:    378  77  10  772
1477482491.061:    434  77  10  772
1477482491.062:    524  77  10  772
1477482491.075:    586  77  10  772
1477482491.076:    573  77  10  772
1477482491.079:    508  77  10  772
1477482491.079:    452  77  10  772
1477482491.080:    428  77  10  772
1477482491.087:    420  77  10  772
1477482491.099:    414  77  10  772
1477482491.194:    421  77  10  772
1477482491.194:    449  77  10  772
1477482491.194:    500  77  10  772
1477482491.195:    546  77  10  772
1477482491.195:    557  77  10  772
1477482491.195:    535  77  10  772
1477482491.195:    501  77  10  772
1477482491.195:    456  77  10  772
1477482491.195:    398  77  10  772
1477482491.195:    351  77  10  772
1477482491.196:    350  77  10  772
1477482491.196:    391  77  10  772
1477482491.196:    441  77  10  772
1477482491.196:    455  77  10  772
1477482491.196:    429  77  10  772
1477482491.196:    393  77  10  772
1477482491.196:    379  77  10  772
1477482491.196:    368  77  10  772
1477482491.197:    337  77  10  772
1477482491.197:    300  77  10  772
1477482491.197:    306  77  10  772
1477482491.197:    370  77  10  772
1477482491.197:    465  77  10  772
1477482491.197:    536  77  10  772
1477482491.197:    556  77  10  772
1477482491.198:    536  77  10  772
1477482491.198:    508  77  10  772
1477482491.199:    481  77  10  772
1477482491.200:    446  77  10  772
1477482491.200:    415  77  10  772
1477482491.200:    416  77  10  772
1477482491.200:    455  77  10  772
1477482491.200:    506  77  10  772
1477482491.200:    540  77  10  772
1477482491.201:    545  77  10  772
1477482491.201:    523  77  10  772
1477482491.201:    492  77  10  772
1477482491.201:    451  77  10  772
1477482491.201:    401  77  10  772
1477482491.201:    361  77  10  772
1477482491.201:    361  77  10  772
1477482491.202:    404  77  10  772
1477482491.202:    464  77  10  772
1477482491.202:    514  77  10  772
1477482491.202:    540  77  10  772
1477482491.202:    536  77  10  772
1477482491.202:    506  77  10  772
1477482491.203:    460  77  10  772
1477482491.203:    402  77  10  772
1477482491.203:    349  77  10  772
1477482491.203:    327  77  10  772
1477482491.203:    339  77  10  772
1477482491.203:    373  77  10  772
1477482491.203:    411  77  10  772
1477482491.204:    431  77  10  772
1477482491.204:    414  77  10  772
1477482491.204:    358  77  10  772
1477482491.204:    290  77  10  772
1477482491.204:    228  77  10  772
1477482491.204:    188  77  10  772
1477482491.204:    184  77  10  772
1477482491.204:    219  77  10  772
1477482491.205:    275  77  10  772
1477482491.205:    339  77  10  772
1477482491.205:    394  77  10  772
1477482491.205:    424  77  10  772
1477482491.205:    423  77  10  772
1477482491.205:    408  77  10  772
1477482491.206:    382  77  10  772
1477482491.206:    354  77  10  772
1477482491.206:    340  77  10  772
1477482491.206:    360  77  10  772
1477482491.206:    408  77  10  772
1477482491.206:    468  77  10  772
1477482491.206:    516  77  10  772
1477482491.207:    533  77  10  772
1477482491.207:    518  77  10  772
1477482491.207:    494  77  10  772
1477482491.207:    471  77  10  772
1477482491.207:    450  77  10  772
1477482491.207:    439  77  10  772
1477482491.207:    458  77  10  772
1477482491.208:    511  77  10  772
1477482491.213:    586  77  10  772
1477482491.213:    650  77  10  772
1477482491.227:    679  77  10  772
1477482491.228:    671  77  10  772
1477482491.228:    654  77  10  772
1477482491.229:    644  77  10  772
1477482491.229:    630  77  10  772
1477482491.229:    609  77  10  772
1477482491.230:    597  77  10  772
1477482491.232:    615  77  10  772
1477482491.232:    665  77  10  772
1477482491.233:    722  77  10  772
1477482491.233:    751  77  10  772
1477482491.235:    733  77  10  772
1477482491.237:    680  77  10  772
1477482491.239:    614  77  10  772
1477482491.250:    538  77  10  772
1477482491.250:    465  77  10  772
1477482491.250:    414  77  10  772
1477482491.251:    402  77  10  772
1477482491.251:    415  77  10  772
1477482491.252:    432  77  10  772
1477482491.254:    438  77  10  772
1477482491.255:    428  77  10  772
1477482491.257:    413  77  10  772
1477482491.258:    399  77  10  772
1477482491.268:    374  77  10  772
1477482491.268:    342  77  10  772
1477482491.268:    326  77  10  772
1477482491.269:    338  77  10  772
1477482491.269:    359  77  10  772
1477482491.271:    358  77  10  772
1477482491.272:    320  77  10  772
1477482491.277:    259  77  10  772
1477482491.277:    194  77  10  772
1477482491.278:    138  77  10  772
1477482491.281:     74  77  10  772
1477482491.283:      8  77  10  772
1477482491.298:    -27  77  10  772
1477482491.298:      4  77  10  772
1477482491.299:     77  77  10  772
1477482491.299:    144  77  10  772
1477482491.299:    166  77  10  772
1477482491.299:    146  77  10  772
1477482491.299:    107  77  10  772
1477482491.300:     65  77  10  772
1477482491.301:      0  77  10  772
1477482491.304:    -89  77  10  772
1477482491.304:   -153  77  10  772
1477482491.307:   -125  77  10  772
1477482491.307:     -6  77  10  772
1477482491.310:    146  77  10  772
1477482491.313:    256  77  10  772
1477482491.313:    300  77  10  772
1477482491.318:    302  77  10  772
1477482491.319:    307  77  10  772
1477482491.332:    311  77  10  772
1477482491.336:    289  77  10  772
1477482491.336:    236  77  10  772
1477482491.336:    186  77  10  772
1477482491.337:    171  77  10  772
1477482491.337:    189  77  10  772
1477482491.337:    213  77  10  772
1477482491.337:    216  77  10  772
1477482491.337:    190  77  10  772
1477482491.337:    159  77  10  772
1477482491.340:    137  77  10  772
1477482491.341:    117  77  10  772
1477482491.350:     94  77  10  772
1477482491.350:     85  77  10  772
1477482491.351:    108  77  10  772
1477482491.351:    163  77  10  772
1477482491.351:    230  77  10  772
1477482491.354:    276  77  10  772
1477482491.355:    278  77  10  772
1477482491.359:    244  77  10  772
1477482491.359:    202  77  10  772
1477482491.361:    163  77  10  772
1477482491.362:    136  77  10  772
1477482491.367:    134  77  10  772
1477482491.380:    168  77  10  772
1477482491.380:    229  77  10  772
1477482491.383:    291  77  10  772
1477482491.383:    325  77  10  772
1477482491.383:    316  77  10  772
1477482491.384:    279  77  10  772
1477482491.384:    241  77  10  772
1477482491.384:    210  77  10  772
1477482491.384:    188  77  10  772
1477482491.387:    182  77  10  772
1477482491.397:    207  77  10  772
1477482491.397:    251  77  10  772
1477482491.397:    293  77  10  772
1477482491.397:    314  77  10  772
1477482491.397:    309  77  10  772
1477482491.398:    283  77  10  772
1477482491.400:    247  77  10  772
1477482491.400:    183  77  10  772
1477482491.406:     92  77  10  772
1477482491.406:     10  77  10  772
1477482491.416:     -3  77  10  772
1477482491.416:     65  77  10  772
1477482491.416:    176  77  10  772
1477482491.416:    265  77  10  772
1477482491.417:    291  77  10  772
1477482491.417:    260  77  10  772
1477482491.417:    191  77  10  772
1477482491.423:     49  77  10  772
1477482491.423:   -213  77  10  772
1477482491.449:   -592  77  10  772
1477482491.451:  -1014  77  10  772
1477482491.452:  -1415  77  10  772
1477482491.455:  -1812  77  10  772
1477482491.457:  -2274  77  10  772
1477482491.457:  -2826  77  10  772
1477482491.458:  -3388  77  10  772
1477482491.459:  -3824  77  10  772
1477482491.459:  -4060  77  10  772
1477482491.460:  -4108  77  10  772
1477482491.460:  -3970  77  10  772
1477482491.478:  -3603  77  10  772
1477482491.490:  -2992  77  10  772
1477482491.490:  -2235  77  10  772
1477482491.490:  -1514  77  10  772
1477482491.490:   -957  77  10  772
1477482491.490:   -556  77  10  772
1477482491.491:   -221  77  10  772
1477482491.491:     74  77  10  772
1477482491.491:    246  77  10  772
1477482491.491:    228  77  10  772
1477482491.491:     73  77  10  772
1477482491.491:    -73  77  10  772
1477482491.492:    -96  77  10  772
1477482491.492:     10  77  10  772
1477482491.492:    166  77  10  772
1477482491.492:    289  77  10  772
1477482491.492:    363  77  10  772
1477482491.493:    420  77  10  772
1477482491.493:    485  77  10  772
1477482491.493:    565  77  10  772
1477482491.493:    649  77  10  772
1477482491.493:    729  77  10  772
1477482491.494:    788  77  10  772
1477482491.494:    817  77  10  772
1477482491.507:    808  77  10  772
1477482491.507:    751  77  10  772
1477482491.508:    670  77  10  772
1477482491.508:    618  77  10  772
1477482491.509:    616  77  10  772
1477482491.509:    647  77  10  772
1477482491.509:    669  77  10  772
1477482491.509:    664  77  10  772
1477482491.510:    644  77  10  772
1477482491.513:    640  77  10  772
1477482491.513:    644  77  10  772
1477482491.517:    621  77  10  772
1477482491.526:    554  77  10  772
1477482491.527:    484  77  10  772
1477482491.527:    452  77  10  772
1477482491.527:    460  77  10  772
1477482491.528:    479  77  10  772
1477482491.528:    495  77  10  772
1477482491.528:    512  77  10  772
1477482491.530:    550  77  10  772
1477482491.533:    597  77  10  772
1477482491.538:    618  77  10  772
1477482491.544:    594  77  10  772
1477482491.545:    555  77  10  772
1477482491.545:    531  77  10  772
1477482491.546:    522  77  10  772
1477482491.547:    511  77  10  772
1477482491.547:    499  77  10  772
1477482491.551:    503  77  10  772
1477482491.551:    534  77  10  772
1477482491.562:    580  77  10  772
1477482491.563:    603  77  10  772
1477482491.566:    581  77  10  772
1477482491.566:    533  77  10  772
1477482491.567:    489  77  10  772
1477482491.568:    449  77  10  774
1477482491.569:    407  77  10  774
1477482491.569:    373  77  10  774
1477482491.570:    372  77  10  774
1477482491.571:    415  77  10  774
1477482491.571:    479  77  10  774
1477482491.574:    513  77  10  774
1477482491.583:    484  77  10  774
1477482491.584:    415  77  10  774
1477482491.584:    355  77  10  774
1477482491.585:    319  77  10  774
1477482491.586:    296  77  10  774
1477482491.586:    278  77  10  774
1477482491.587:    278  77  10  774
1477482491.592:    311  77  10  774
1477482491.612:    375  77  10  774
1477482491.612:    429  77  10  774
1477482491.612:    432  77  10  774
1477482491.613:    387  77  10  774
1477482491.613:    340  77  10  774
1477482491.613:    312  77  10  774
1477482491.613:    297  77  10  774
1477482491.614:    282  77  10  774
1477482491.614:    282  77  10  774
1477482491.614:    311  77  10  774
1477482491.614:    371  77  10  774
1477482491.614:    425  77  10  774
1477482491.615:    429  77  10  774
1477482491.619:    377  77  10  774
1477482491.620:    310  77  10  774
1477482491.621:    253  77  10  774
1477482491.623:    206  77  10  774
1477482491.623:    162  77  10  774
1477482491.626:    127  77  10  774
1477482491.629:    109  77  10  774
1477482491.642:    114  77  10  774
1477482491.642:    123  77  10  774
1477482491.642:    116  77  10  774
1477482491.643:     82  77  10  774
1477482491.643:     39  77  10  774
1477482491.643:     -8  77  10  774
1477482491.643:    -60  77  10  774
1477482491.647:   -106  77  10  774
1477482491.647:   -118  77  10  774
1477482491.651:    -90  77  10  774
1477482491.651:    -40  77  10  774
1477482491.654:     -4  77  10  774
1477482491.673:    -12  77  10  774
1477482491.674:    -71  77  10  774
1477482491.675:   -148  77  10  774
1477482491.675:   -216  77  10  774
1477482491.677:   -264  77  10  774
1477482491.678:   -290  77  10  774
1477482491.679:   -285  77  10  774
1477482491.679:   -247  77  10  774
1477482491.679:   -187  77  10  774
1477482491.679:   -125  77  10  774
1477482491.679:    -80  77  10  774
1477482491.680:    -61  77  10  774
1477482491.680:    -54  77  10  774
1477482491.680:    -41  77  10  774
1477482491.684:    -29  77  10  774
1477482491.684:    -25  77  10  774
1477482491.695:    -15  77  10  774
1477482491.696:     25  77  10  774
1477482491.696:     97  77  10  774
1477482491.697:    182  77  10  774
1477482491.697:    235  77  10  774
1477482491.698:    232  77  10  774
1477482491.699:    184  77  10  774
1477482491.702:    129  77  10  774
1477482491.702:     84  77  10  774
1477482491.703:     55  77  10  774
1477482491.705:     48  77  10  774
1477482491.706:     70  77  10  774
1477482491.709:    113  77  10  774
1477482491.711:    164  77  10  774
1477482491.719:    206  77  10  774
1477482491.720:    225  77  10  774
1477482491.720:    215  77  10  774
1477482491.721:    181  77  10  774
1477482491.724:    123  77  10  774
1477482491.724:     65  77  10  774
1477482491.725:     37  77  10  774
1477482491.726:     56  77  10  774
1477482491.748:     97  77  10  774
1477482491.749:    134  77  10  774
1477482491.750:    153  77  10  774
1477482491.750:    162  77  10  774
1477482491.751:    162  77  10  774
1477482491.752:    154  77  10  774
1477482491.752:    127  77  10  774
1477482491.753:     92  77  10  774
1477482491.753:     82  77  10  774
1477482491.754:    120  77  10  774
1477482491.756:    189  77  10  774
1477482491.756:    252  77  10  774
1477482491.756:    288  77  10  774
1477482491.756:    300  77  10  774
1477482491.757:    299  77  10  774
1477482491.757:    295  77  10  774
1477482491.761:    273  77  10  774
1477482491.763:    228  77  10  774
1477482491.765:    186  77  10  774
1477482491.766:    194  77  10  774
1477482491.767:    260  77  10  774
1477482491.771:    346  77  10  774
1477482491.771:    402  77  10  774
1477482491.776:    410  77  10  774
1477482491.796:    392  77  10  774
1477482491.797:    384  77  10  774
1477482491.797:    380  77  10  774
1477482491.797:    347  77  10  774
1477482491.798:    282  77  10  774
1477482491.798:    234  77  10  774
1477482491.799:    245  77  10  774
1477482491.799:    301  77  10  774
1477482491.799:    349  77  10  774
1477482491.799:    348  77  10  774
1477482491.800:    302  77  10  774
1477482491.802:    246  77  10  774
1477482491.803:    205  77  10  774
1477482491.803:    157  77  10  774
1477482491.803:     95  77  10  774
1477482491.805:     51  77  10  774
1477482491.806:     66  77  10  774
1477482491.809:    134  77  10  774
1477482491.812:    213  77  10  774
1477482491.812:    250  77  10  774
1477482491.830:    237  77  10  774
1477482491.830:    203  77  10  774
1477482491.831:    183  77  10  774
1477482491.831:    166  77  10  774
1477482491.831:    136  77  10  774
1477482491.831:    105  77  10  774
1477482491.831:    107  77  10  774
1477482491.832:    151  77  10  774
1477482491.832:    219  77  10  774
1477482491.833:    270  77  10  774
1477482491.834:    282  77  10  774
1477482491.836:    259  77  10  774
1477482491.840:    225  77  10  774
1477482491.840:    184  77  10  774
1477482491.854:    140  77  10  774
1477482491.855:    113  77  10  774
1477482491.856:    127  77  10  774
1477482491.856:    174  77  10  774
1477482491.856:    232  77  10  774
1477482491.857:    270  77  10  774
1477482491.857:    268  77  10  774
1477482491.858:    230  77  10  774
1477482491.860:    185  77  10  774
1477482491.861:    146  77  10  774
1477482491.863:    112  77  10  774
1477482491.864:     83  77  10  774
1477482491.865:     73  77  10  774
1477482491.872:     91  77  10  774
1477482492.044:    139  77  10  774
1477482492.045:    194  77  10  774
1477482492.045:    225  77  10  774
1477482492.045:    209  77  10  774
1477482492.045:    163  77  10  774
1477482492.045:    114  77  10  774
1477482492.045:     75  77  10  774
1477482492.045:     49  77  10  774
1477482492.046:     48  77  10  774
1477482492.046:     81  77  10  774
1477482492.046:    139  77  10  774
1477482492.046:    199  77  10  774
1477482492.046:    229  77  10  774
1477482492.046:    222  77  10  774
1477482492.046:    205  77  10  774
1477482492.047:    198  77  10  774
1477482492.047:    179  77  10  774
1477482492.047:    135  77  10  774
1477482492.047:     98  77  10  774
1477482492.048:    116  77  10  774
1477482492.048:    188  77  10  774
1477482492.049:    258  77  10  774
1477482492.050:    262  77  10  774
1477482492.050:    203  77  10  774
1477482492.050:    142  77  10  774
1477482492.050:    126  77  10  774
1477482492.050:    120  77  10  774
1477482492.050:     73  77  10  774
1477482492.051:      4  77  10  774
1477482492.051:    -20  77  10  774
1477482492.051:     26  77  10  774
1477482492.051:     95  77  10  774
1477482492.051:    120  77  10  774
1477482492.051:     97  77  10  774
1477482492.051:     72  77  10  774
1477482492.052:     78  77  10  774
1477482492.052:     67  77  10  774
1477482492.053:      4  77  10  774
1477482492.053:    -74  77  10  774
1477482492.054:    -85  77  10  774
1477482492.054:    -20  77  10  774
1477482492.054:     52  77  10  774
1477482492.054:     53  77  10  774
1477482492.054:     -4  77  10  774
1477482492.054:    -48  77  10  774
1477482492.054:    -35  77  10  774
1477482492.054:    -13  77  10  774
1477482492.055:    -41  77  10  774
1477482492.061:    -97  77  10  774
1477482492.061:    -95  77  10  774
1477482492.061:      1  77  10  774
1477482492.062:    139  77  10  774
1477482492.062:    222  77  10  774
1477482492.062:    213  77  10  774
1477482492.062:    157  77  10  774
1477482492.062:    124  77  10  774
1477482492.062:    125  77  10  774
1477482492.062:    118  77  10  774
1477482492.063:     77  77  10  774
1477482492.063:     41  77  10  774
1477482492.063:     57  77  10  774
1477482492.063:    128  77  10  774
1477482492.063:    209  77  10  774
1477482492.063:    249  77  10  774
1477482492.063:    229  77  10  774
1477482492.064:    181  77  10  774
1477482492.064:    139  77  10  774
1477482492.064:    101  77  10  774
1477482492.064:     59  77  10  774
1477482492.064:     30  77  10  774
1477482492.064:     40  77  10  774
1477482492.064:     96  77  10  774
1477482492.065:    171  77  10  774
1477482492.065:    217  77  10  774
1477482492.065:    197  77  10  774
1477482492.069:    132  77  10  774
1477482492.069:     70  77  10  774
1477482492.069:     33  77  10  774
1477482492.070:     16  77  10  774
1477482492.070:     10  77  10  774
1477482492.082:     16  77  10  774
1477482492.082:     44  77  10  774
1477482492.082:    104  77  10  774
1477482492.082:    176  77  10  774
1477482492.083:    221  77  10  774
1477482492.083:    221  77  10  774
1477482492.083:    197  77  10  774
1477482492.083:    166  77  10  774
1477482492.083:    145  77  10  774
1477482492.084:    144  77  10  774
1477482492.084:    169  77  10  774
1477482492.084:    211  77  10  774
1477482492.084:    260  77  10  774
1477482492.084:    291  77  10  774
1477482492.084:    284  77  10  774
1477482492.085:    241  77  10  774
1477482492.085:    186  77  10  774
1477482492.085:    131  77  10  774
1477482492.085:     84  77  10  774
1477482492.086:     59  77  10  774
1477482492.086:     77  77  10  774
1477482492.086:    140  77  10  774
1477482492.086:    229  77  10  774
1477482492.086:    298  77  10  774
1477482492.086:    314  77  10  774
1477482492.086:    272  77  10  774
1477482492.087:    210  77  10  774
1477482492.087:    151  77  10  774
1477482492.087:     91  77  10  774
1477482492.087:     13  77  10  774
1477482492.088:    -73  77  10  774
1477482492.090:   -141  77  10  774
1477482492.112:   -161  77  10  774
1477482492.112:   -138  77  10  774
1477482492.113:   -110  77  10  774
1477482492.113:   -112  77  10  774
1477482492.113:   -136  77  10  774
1477482492.113:   -153  77  10  774
1477482492.113:   -159  77  10  774
1477482492.113:   -164  77  10  774
1477482492.114:   -164  77  10  774
1477482492.114:   -141  77  10  774
1477482492.114:    -86  77  10  774
1477482492.114:    -21  77  10  774
1477482492.114:      4  77  10  774
1477482492.117:    -33  77  10  774
1477482492.118:    -90  77  10  774
1477482492.121:   -113  77  10  774
1477482492.121:    -95  77  10  774
1477482492.122:    -69  77  10  774
1477482492.126:    -46  77  10  774
1477482492.127:     -5  77  10  774
1477482492.131:     71  77  10  774
1477482492.132:    162  77  10  774
1477482492.142:    209  77  10  774
1477482492.142:    180  77  10  774
1477482492.142:    109  77  10  774
1477482492.142:     56  77  10  774
1477482492.142:     25  77  10  774
1477482492.145:    -12  77  10  774
1477482492.145:    -64  77  10  774
1477482492.147:    -93  77  10  774
1477482492.149:    -64  77  10  774
1477482492.149:     20  77  10  774
1477482492.160:     95  77  10  774
1477482492.161:    107  77  10  774
1477482492.161:     63  77  10  774
1477482492.161:     21  77  10  774
1477482492.161:      9  77  10  774
1477482492.162:      8  77  10  774
1477482492.163:     -4  77  10  774
1477482492.166:    -11  77  10  774
1477482492.168:     16  77  10  774
1477482492.173:     90  77  10  774
1477482492.173:    167  77  10  774
1477482492.175:    184  77  10  774
1477482492.176:    126  77  10  774
1477482492.177:     46  77  10  774
1477482492.183:     -7  77  10  774
1477482492.183:    -25  77  10  774
1477482492.187:    -29  77  10  774
1477482492.187:    -25  77  10  774
1477482492.189:     -9  77  10  774
1477482492.190:     28  77  10  774
1477482492.191:     67  77  10  774
1477482492.196:     76  77  10  774
1477482492.211:     36  77  10  774
1477482492.211:    -33  77  10  774
1477482492.211:   -108  77  10  774
1477482492.211:   -188  77  10  774
1477482492.211:   -262  77  10  774
1477482492.212:   -309  77  10  774
1477482492.212:   -318  77  10  774
1477482492.212:   -302  77  10  774
1477482492.214:   -298  77  10  774
1477482492.214:   -323  77  10  774
1477482492.216:   -361  77  10  774
1477482492.217:   -373  77  10  774
1477482492.218:   -352  77  10  774
1477482492.221:   -331  77  10  774
1477482492.223:   -327  77  10  774
1477482492.226:   -308  77  10  774
1477482492.240:   -246  77  10  774
1477482492.240:   -184  77  10  774
1477482492.240:   -223  77  10  774
1477482492.240:   -444  77  10  774
1477482492.240:   -830  77  10  774
1477482492.241:  -1281  77  10  774
1477482492.241:  -1725  77  10  774
1477482492.241:  -2199  77  10  774
1477482492.245:  -2759  77  10  774
1477482492.245:  -3362  77  10  774
1477482492.247:  -3869  77  10  774
1477482492.248:  -4165  77  10  774
1477482492.251:  -4238  77  10  774
1477482492.255:  -4152  77  10  774
1477482492.256:  -3928  77  10  774
1477482492.257:  -3518  77  10  774
1477482492.258:  -2902  77  10  774
1477482492.259:  -2200  77  10  774
1477482492.282:  -1582  77  10  774
1477482492.283:  -1110  77  10  774
1477482492.283:   -701  77  10  774
1477482492.283:   -266  77  10  774
1477482492.283:    150  77  10  774
1477482492.283:    388  77  10  774
1477482492.283:    354  77  10  774
1477482492.283:    129  77  10  774
1477482492.283:    -81  77  10  774
1477482492.287:   -154  77  10  774
1477482492.289:   -107  77  10  774
1477482492.289:    -16  77  10  774
1477482492.290:     88  77  10  774
1477482492.290:    221  77  10  774
1477482492.290:    389  77  10  774
1477482492.290:    549  77  10  774
1477482492.293:    656  77  10  774
1477482492.295:    703  77  10  774
1477482492.297:    725  77  10  774
1477482492.301:    723  77  10  774
1477482492.312:    673  77  10  774
1477482492.312:    570  77  10  774
1477482492.312:    472  77  10  774
1477482492.312:    447  77  10  774
1477482492.313:    518  77  10  774
1477482492.313:    638  77  10  774
1477482492.320:    728  77  10  774
1477482492.320:    744  77  10  774
1477482492.321:    701  77  10  774
1477482492.322:    630  77  10  774
1477482492.323:    540  77  10  774
1477482492.324:    451  77  10  774
1477482492.324:    404  77  10  774
1477482492.329:    434  77  10  774
1477482492.329:    534  77  10  774
1477482492.331:    653  77  10  774
1477482492.341:    726  77  10  774
1477482492.341:    728  77  10  774
1477482492.341:    694  77  10  774
1477482492.342:    662  77  10  774
1477482492.343:    630  77  10  774
1477482492.343:    586  77  10  774
1477482492.344:    542  77  10  774
1477482492.346:    531  77  10  774
1477482492.348:    568  77  10  774
1477482492.351:    635  77  10  774
1477482492.352:    682  77  10  774
1477482492.357:    678  77  10  774
1477482492.357:    636  77  10  774
1477482492.359:    596  77  10  774
1477482492.360:    566  76  10  778
1477482492.362:    542  76  10  778
1477482492.363:    529  76  10  778
1477482492.370:    544  76  10  778
1477482492.376:    592  76  10  778
1477482492.377:    654  76  10  778
1477482492.377:    688  76  10  778
1477482492.377:    668  76  10  778
1477482492.377:    607  76  10  778
1477482492.379:    545  76  10  778
1477482492.379:    494  76  10  778
1477482492.388:    446  76  10  778
1477482492.397:    399  76  10  778
1477482492.397:    377  76  10  778
1477482492.397:    397  76  10  778
1477482492.397:    449  76  10  778
1477482492.397:    492  76  10  778
1477482492.398:    492  76  10  778
1477482492.401:    451  76  10  778
1477482492.401:    406  76  10  778
1477482492.401:    371  76  10  778
1477482492.402:    332  76  10  778
1477482492.403:    288  76  10  778
1477482492.407:    269  76  10  778
1477482492.407:    301  76  10  778
1477482492.411:    381  76  10  778
1477482492.412:    466  76  10  778
1477482492.419:    515  76  10  778
1477482492.435:    514  76  10  778
1477482492.436:    498  76  10  778
1477482492.436:    492  76  10  778
1477482492.436:    500  76  10  778
1477482492.437:    520  76  10  778
1477482492.437:    555  76  10  778
1477482492.437:    601  76  10  778
1477482492.437:    645  76  10  778
1477482492.438:    675  76  10  778
1477482492.439:    688  76  10  778
1477482492.440:    678  76  10  778
1477482492.441:    647  76  10  778
1477482492.441:    595  76  10  778
1477482492.442:    524  76  10  778
1477482492.443:    463  76  10  778
1477482492.444:    451  76  10  778
1477482492.447:    494  76  10  778
1477482492.453:    556  76  10  778
1477482492.468:    592  76  10  778
1477482492.469:    586  76  10  778
1477482492.469:    548  76  10  778
1477482492.469:    507  76  10  778
1477482492.469:    469  76  10  778
1477482492.470:    407  76  10  778
1477482492.470:    320  76  10  778
1477482492.470:    249  76  10  778
1477482492.470:    241  76  10  778
1477482492.471:    295  76  10  778
1477482492.472:    361  76  10  778
1477482492.475:    387  76  10  778
1477482492.475:    364  76  10  778
1477482492.476:    330  76  10  778
1477482492.479:    327  76  10  778
1477482492.479:    344  76  10  778
1477482492.484:    358  76  10  778
1477482492.485:    373  76  10  778
1477482492.504:    422  76  10  778
1477482492.504:    515  76  10  778
1477482492.504:    631  76  10  778
1477482492.504:    727  76  10  778
1477482492.505:    776  76  10  778
1477482492.505:    781  76  10  778
1477482492.505:    767  76  10  778
1477482492.505:    737  76  10  778
1477482492.506:    694  76  10  778
1477482492.508:    654  76  10  778
1477482492.508:    646  76  10  778
1477482492.509:    670  76  10  778
1477482492.512:    704  76  10  778
1477482492.512:    712  76  10  778
1477482492.514:    683  76  10  778
1477482492.517:    630  76  10  778
1477482492.539:    586  76  10  778
1477482492.540:    548  76  10  778
1477482492.540:    500  76  10  778
1477482492.540:    447  76  10  778
1477482492.540:    428  76  10  778
1477482492.541:    470  76  10  778
1477482492.541:    556  76  10  778
1477482492.541:    633  76  10  778
1477482492.541:    662  76  10  778
1477482492.541:    649  76  10  778
1477482492.542:    629  76  10  778
1477482492.542:    614  76  10  778
1477482492.544:    580  76  10  778
1477482492.544:    524  76  10  778
1477482492.544:    495  76  10  778
1477482492.546:    539  76  10  778
1477482492.552:    642  76  10  778
1477482492.552:    734  76  10  778
1477482492.553:    756  76  10  778
1477482492.555:    712  76  10  778
1477482492.557:    671  76  10  778
1477482492.561:    682  76  10  778
1477482492.580:    714  76  10  778
1477482492.581:    716  76  10  778
1477482492.581:    687  76  10  778
1477482492.582:    676  76  10  778
1477482492.582:    722  76  10  778
1477482492.583:    806  76  10  778
1477482492.583:    869  76  10  778
1477482492.584:    871  76  10  778
1477482492.585:    833  76  10  778
1477482492.586:    805  76  10  778
1477482492.587:    793  76  10  778
1477482492.587:    777  76  10  778
1477482492.599:    756  76  10  778
1477482492.600:    767  76  10  778
1477482492.600:    834  76  10  778
1477482492.600:    934  76  10  778
1477482492.600:   1000  76  10  778
1477482492.601:    991  76  10  778
1477482492.601:    929  76  10  778
1477482492.601:    886  76  10  778
1477482492.603:    876  76  10  778
1477482492.603:    869  76  10  778
1477482492.604:    841  76  10  778
1477482492.611:    821  76  10  778
1477482492.612:    849  76  10  778
1477482492.612:    925  76  10  778
1477482492.612:    991  76  10  778
1477482492.619:    988  76  10  778
1477482492.641:    919  76  10  778
1477482492.642:    852  76  10  778
1477482492.642:    822  76  10  778
1477482492.642:    812  76  10  778
1477482492.643:    792  76  10  778
1477482492.643:    772  76  10  778
1477482492.643:    785  76  10  778
1477482492.643:    847  76  10  778
1477482492.643:    927  76  10  778
1477482492.644:    971  76  10  778
1477482492.644:    954  76  10  778
1477482492.645:    899  76  10  778
1477482492.645:    838  76  10  778
1477482492.645:    784  76  10  778
1477482492.646:    743  76  10  778
1477482492.646:    725  76  10  778
1477482492.647:    725  76  10  778
1477482492.648:    731  76  10  778
1477482492.653:    730  76  10  778
1477482492.653:    721  76  10  778
1477482492.673:    708  76  10  778
1477482492.743:    702  76  10  778
1477482492.743:    692  76  10  778
1477482492.744:    661  76  10  778
1477482492.744:    618  76  10  778
1477482492.744:    595  76  10  778
1477482492.744:    614  76  10  778
1477482492.744:    663  76  10  778
1477482492.744:    708  76  10  778
1477482492.744:    711  76  10  778
1477482492.745:    656  76  10  778
1477482492.745:    560  76  10  778
1477482492.745:    460  76  10  778
1477482492.745:    372  76  10  778
1477482492.745:    308  76  10  778
1477482492.745:    274  76  10  778
1477482492.745:    277  76  10  778
1477482492.746:    311  76  10  778
1477482492.746:    362  76  10  778
1477482492.746:    397  76  10  778
1477482492.746:    390  76  10  778
1477482492.746:    342  76  10  778
1477482492.746:    288  76  10  778
1477482492.746:    241  76  10  778
1477482492.747:    198  76  10  778
1477482492.747:    153  76  10  778
1477482492.752:    118  76  10  778
1477482492.752:    103  76  10  778
1477482492.752:    110  76  10  778
1477482492.752:    111  76  10  778
1477482492.752:     76  76  10  778
1477482492.753:     -2  76  10  778
1477482492.753:    -91  76  10  778
1477482492.753:   -171  76  10  778
1477482492.753:   -241  76  10  778
1477482492.753:   -302  76  10  778
1477482492.753:   -331  76  10  778
1477482492.759:   -309  76  10  778
1477482492.774:   -232  76  10  778
1477482492.774:   -131  76  10  778
1477482492.774:    -55  76  10  778
1477482492.775:    -36  76  10  778
1477482492.775:    -51  76  10  778
1477482492.775:    -63  76  10  778
1477482492.775:    -47  76  10  778
1477482492.776:     -2  76  10  778
1477482492.776:     66  76  10  778
1477482492.776:    134  76  10  778
1477482492.776:    191  76  10  778
1477482492.776:    231  76  10  778
1477482492.776:    257  76  10  778
1477482492.777:    261  76  10  778
1477482492.777:    249  76  10  778
1477482492.777:    224  76  10  778
1477482492.778:    188  76  10  778
1477482492.778:    155  76  10  778
1477482492.778:    151  76  10  778
1477482492.778:    186  76  10  778
1477482492.778:    256  76  10  778
1477482492.778:    341  76  10  778
1477482492.779:    412  76  10  778
1477482492.779:    443  76  10  778
1477482492.779:    434  76  10  778
1477482492.780:    409  76  10  778
1477482492.782:    393  76  10  778
1477482492.782:    402  76  10  778
1477482492.796:    438  76  10  778
1477482492.797:    488  76  10  778
1477482492.800:    536  76  10  778
1477482492.801:    584  76  10  778
1477482492.801:    623  76  10  778
1477482492.801:    635  76  10  778
1477482492.802:    613  76  10  778
1477482492.802:    577  76  10  778
1477482492.802:    542  76  10  778
1477482492.803:    519  76  10  778
1477482492.805:    507  76  10  778
1477482492.809:    509  76  10  778
1477482492.809:    526  76  10  778
1477482492.811:    567  76  10  778
1477482492.812:    612  76  10  778
1477482492.813:    628  76  10  778
1477482492.816:    598  76  10  778
1477482492.818:    544  76  10  778
1477482492.834:    488  76  10  778
1477482492.834:    445  76  10  778
1477482492.834:    427  76  10  778
1477482492.834:    450  76  10  778
1477482492.835:    507  76  10  778
1477482492.835:    573  76  10  778
1477482492.835:    604  76  10  778
1477482492.835:    584  76  10  778
1477482492.836:    538  76  10  778
1477482492.837:    516  76  10  778
1477482492.842:    521  76  10  778
1477482492.842:    523  76  10  778
1477482492.844:    509  76  10  778
1477482492.844:    513  76  10  778
1477482492.848:    564  76  10  778
1477482492.848:    650  76  10  778
1477482492.860:    725  76  10  778
1477482492.861:    751  76  10  778
1477482492.861:    734  76  10  778
1477482492.861:    707  76  10  778
1477482492.861:    679  76  10  778
1477482492.862:    637  76  10  778
1477482492.863:    588  76  10  778
1477482492.864:    569  76  10  778
1477482492.869:    598  76  10  778
1477482492.870:    652  76  10  778
1477482492.871:    685  76  10  778
1477482492.875:    666  76  10  778
1477482492.878:    606  76  10  778
1477482492.878:    547  76  10  778
1477482492.880:    518  76  10  778
1477482492.883:    503  76  10  778
1477482492.883:    486  76  10  778
1477482492.885:    480  76  10  778
1477482492.886:    514  76  10  778
1477482492.889:    593  76  10  778
1477482492.904:    689  76  10  778
1477482492.904:    738  76  10  778
1477482492.905:    700  76  10  778
1477482492.905:    597  76  10  778
1477482492.905:    491  76  10  778
1477482492.905:    409  76  10  778
1477482492.905:    345  76  10  778
1477482492.906:    294  76  10  778
1477482492.906:    274  76  10  778
1477482492.910:    309  76  10  778
1477482492.911:    396  76  10  778
1477482492.914:    488  76  10  778
1477482492.915:    537  76  10  778
1477482492.916:    544  76  10  778
1477482492.919:    550  76  10  778
1477482492.920:    563  76  10  778
1477482492.924:    560  76  10  778
1477482492.924:    530  76  10  778
1477482492.943:    512  76  10  778
1477482492.943:    545  76  10  778
1477482492.943:    641  76  10  778
1477482492.943:    761  76  10  778
1477482492.943:    874  76  10  778
1477482492.944:   1005  76  10  778
1477482492.944:   1206  76  10  778
1477482492.944:   1461  76  10  778
1477482492.944:   1687  76  10  778
1477482492.944:   1816  76  10  778
1477482492.946:   1858  76  10  778
1477482492.951:   1855  76  10  778
1477482492.951:   1820  76  10  778
1477482492.952:   1707  76  10  778
1477482492.954:   1470  76  10  778
1477482492.956:   1129  76  10  778
1477482492.959:    772  76  10  778
1477482492.959:    470  76  10  778
1477482492.965:    241  76  10  778
1477482492.965:     85  76  10  778
1477482492.998:     23  76  10  778
1477482492.998:     62  76  10  778
1477482492.998:    179  76  10  778
1477482492.999:    316  76  10  778
1477482492.999:    413  76  10  778
1477482492.999:    453  76  10  778
1477482492.999:    465  76  10  778
1477482493.000:    475  76  10  778
1477482493.000:    477  76  10  778
1477482493.000:    461  76  10  778
1477482493.000:    445  76  10  778
1477482493.000:    458  76  10  778
1477482493.001:    512  76  10  778
1477482493.001:    584  76  10  778
1477482493.001:    625  76  10  778
1477482493.001:    602  76  10  778
1477482493.002:    535  76  10  778
1477482493.002:    473  76  10  778
1477482493.002:    432  76  10  778
1477482493.005:    390  76  10  778
1477482493.006:    330  76  10  778
1477482493.007:    273  76  10  778
1477482493.008:    265  76  10  778
1477482493.010:    331  76  10  778
1477482493.018:    425  76  10  778
1477482493.018:    471  76  10  778
1477482493.032:    439  76  10  778
1477482493.033:    372  76  10  778
1477482493.033:    316  76  10  778
1477482493.033:    284  76  10  778
1477482493.033:    256  76  10  778
1477482493.034:    221  76  10  778
1477482493.034:    188  76  10  778
1477482493.034:    174  76  10  778
1477482493.034:    182  76  10  778
1477482493.035:    190  76  10  778
1477482493.036:    182  76  10  778
1477482493.037:    168  76  10  778
1477482493.043:    151  76  10  778
1477482493.043:    138  76  10  778
1477482493.046:    128  76  10  778
1477482493.047:     97  76  10  778
1477482493.083:    -14  76  10  778
1477482493.083:   -247  76  10  778
1477482493.094:   -597  76  10  778
1477482493.095:  -1026  76  10  778
1477482493.095:  -1505  76  10  778
1477482493.095:  -2040  76  10  778
1477482493.095:  -2653  76  10  778
1477482493.095:  -3294  76  10  778
1477482493.095:  -3844  76  10  778
1477482493.095:  -4189  76  10  778
1477482493.096:  -4317  76  10  778
1477482493.096:  -4265  76  10  778
1477482493.096:  -4041  76  10  778
1477482493.096:  -3616  76  10  778
1477482493.096:  -3017  76  10  778
1477482493.096:  -2365  76  10  778
1477482493.096:  -1817  76  10  778
1477482493.096:  -1429  76  10  778
1477482493.097:  -1115  76  10  778
1477482493.097:   -777  76  10  778
1477482493.097:   -447  76  10  778
1477482493.097:   -261  76  10  778
1477482493.097:   -296  76  10  778
1477482493.097:   -488  76  10  778
1477482493.101:   -688  76  10  778
1477482493.101:   -784  76  10  778
1477482493.101:   -776  76  10  778
1477482493.103:   -733  76  10  778
1477482493.107:   -694  76  10  778
1477482493.107:   -647  76  10  778
1477482493.108:   -563  76  10  778
1477482493.109:   -441  76  10  778
1477482493.111:   -306  76  10  778
1477482493.115:   -199  76  10  778
1477482493.127:   -155  76  10  778
1477482493.127:   -189  76  10  778
1477482493.127:   -276  76  10  778
1477482493.128:   -391  76  10  778
1477482493.128:   -495  76  10  778
1477482493.128:   -551  76  10  778
1477482493.130:   -535  76  10  778
1477482493.130:   -459  76  10  778
1477482493.132:   -357  76  10  778
1477482493.132:   -285  76  10  778
1477482493.133:   -292  76  10  778
1477482493.136:   -377  76  10  778
1477482493.138:   -493  76  10  778
1477482493.143:   -595  76  10  778
1477482493.143:   -671  76  10  778
1477482493.145:   -728  76  10  778
1477482493.157:   -763  76  10  778
1477482493.157:   -768  76  10  778
1477482493.157:   -738  76  10  778
1477482493.157:   -708  76  10  778
1477482493.157:   -728  76  10  778
1477482493.157:   -818  76  10  778
1477482493.158:   -941  76  10  778
1477482493.160:  -1047  76  10  778
1477482493.161:  -1111  76  10  778
1477482493.163:  -1145  76  10  778
1477482493.166:  -1161  76  10  778
1477482493.170:  -1169  76  10  778
1477482493.177:  -1172  76  10  778
1477482493.178:  -1190  76  10  778
1477482493.179:  -1245  76  10  783
1477482493.180:  -1337  76  10  783
1477482493.182:  -1426  76  10  783
1477482493.185:  -1477  76  10  783
1477482493.185:  -1487  76  10  783
1477482493.185:  -1463  76  10  783
1477482493.186:  -1396  76  10  783
1477482493.187:  -1272  76  10  783
1477482493.191:  -1085  76  10  783
1477482493.192:   -867  76  10  783
1477482493.193:   -667  76  10  783
1477482493.198:   -522  76  10  783
1477482493.198:   -427  76  10  783
1477482493.199:   -365  76  10  783
1477482493.201:   -334  76  10  783
1477482493.202:   -338  76  10  783
1477482493.204:   -361  76  10  783
1477482493.207:   -370  76  10  783
1477482493.220:   -345  76  10  783
1477482493.221:   -290  76  10  783
1477482493.222:   -241  76  10  783
1477482493.223:   -220  76  10  783
1477482493.224:   -210  76  10  783
1477482493.224:   -163  76  10  783
1477482493.226:    -63  76  10  783
1477482493.226:     74  76  10  783
1477482493.226:    220  76  10  783
1477482493.228:    359  76  10  783
1477482493.240:    489  76  10  783
1477482493.241:    619  76  10  783
1477482493.241:    733  76  10  783
1477482493.241:    797  76  10  783
1477482493.241:    798  76  10  783
1477482493.241:    764  76  10  783
1477482493.241:    722  76  10  783
1477482493.242:    696  76  10  783
1477482493.246:    692  76  10  783
1477482493.247:    705  76  10  783
1477482493.248:    722  76  10  783
1477482493.250:    746  76  10  783
1477482493.252:    773  76  10  783
1477482493.253:    788  76  10  783
1477482493.258:    770  76  10  783
1477482493.259:    715  76  10  783
1477482493.259:    630  76  10  783
1477482493.261:    549  76  10  783
1477482493.263:    507  76  10  783
1477482493.266:    520  76  10  783
1477482493.267:    564  76  10  783
1477482493.272:    614  76  10  783
1477482493.286:    656  76  10  783
1477482493.286:    688  76  10  783
1477482493.286:    697  76  10  783
1477482493.286:    683  76  10  783
1477482493.287:    649  76  10  783
1477482493.287:    612  76  10  783
1477482493.287:    592  76  10  783
1477482493.287:    601  76  10  783
1477482493.287:    626  76  10  783
1477482493.288:    659  76  10  783
1477482493.292:    697  76  10  783
1477482493.294:    729  76  10  783
1477482493.295:    727  76  10  783
1477482493.299:    685  76  10  783
1477482493.309:    628  76  10  783
1477482493.310:    602  76  10  783
1477482493.310:    632  76  10  783
1477482493.311:    711  76  10  783
1477482493.311:    794  76  10  783
1477482493.311:    856  76  10  783
1477482493.313:    914  76  10  783
1477482493.313:    985  76  10  783
1477482493.315:   1056  76  10  783
1477482493.316:   1099  76  10  783
1477482493.319:   1101  76  10  783
1477482493.321:   1079  76  10  783
1477482493.324:   1069  76  10  783
1477482493.327:   1094  76  10  783
1477482493.327:   1148  76  10  783
1477482493.328:   1210  76  10  783
1477482493.330:   1274  76  10  783
1477482493.332:   1334  76  10  783
1477482493.340:   1368  76  10  783
1477482493.341:   1356  76  10  783
1477482493.341:   1307  76  10  783
1477482493.343:   1248  76  10  783
1477482493.343:   1218  76  10  783
1477482493.345:   1232  76  10  783
1477482493.347:   1271  76  10  783
1477482493.348:   1303  76  10  783
1477482493.349:   1319  76  10  783
1477482493.352:   1330  76  10  783
1477482493.353:   1341  76  10  783
1477482493.358:   1342  76  10  783
1477482493.370:   1329  76  10  783
1477482493.370:   1297  76  10  783
1477482493.370:   1264  76  10  783
1477482493.370:   1255  76  10  783
1477482493.371:   1285  76  10  783
1477482493.371:   1342  76  10  783
1477482493.371:   1408  76  10  783
1477482493.373:   1460  76  10  783
1477482493.373:   1480  76  10  783
1477482493.374:   1460  76  10  783
1477482493.377:   1417  76  10  783
1477482493.379:   1363  76  10  783
1477482493.381:   1314  76  10  783
1477482493.385:   1287  76  10  783
1477482493.386:   1295  76  10  783
1477482493.387:   1325  76  10  783
1477482493.389:   1363  76  10  783
1477482493.394:   1398  76  10  783
1477482493.407:   1423  76  10  783
1477482493.407:   1429  76  10  783
1477482493.408:   1415  76  10  783
1477482493.408:   1378  76  10  783
1477482493.408:   1328  76  10  783
1477482493.408:   1291  76  10  783
1477482493.409:   1300  76  10  783
1477482493.409:   1346  76  10  783
1477482493.409:   1397  76  10  783
1477482493.412:   1427  76  10  783
1477482493.413:   1428  76  10  783
1477482493.414:   1408  76  10  783
1477482493.417:   1380  76  10  783
1477482493.418:   1342  76  10  783
1477482493.421:   1284  76  10  783
1477482493.422:   1227  76  10  783
1477482493.426:   1206  76  10  783
1477482493.427:   1234  76  10  783
1477482493.439:   1291  76  10  783
1477482493.440:   1352  76  10  783
1477482493.440:   1394  76  10  783
1477482493.440:   1395  76  10  783
1477482493.441:   1335  76  10  783
1477482493.442:   1204  76  10  783
1477482493.443:   1018  76  10  783
1477482493.443:    839  76  10  783
1477482493.445:    723  76  10  783
1477482493.446:    666  76  10  783
1477482493.458:    607  76  10  783
1477482493.458:    507  76  10  783
1477482493.459:    390  76  10  783
1477482493.459:    313  76  10  783
1477482493.459:    295  76  10  783
1477482493.459:    305  76  10  783
1477482493.463:    287  76  10  783
1477482493.463:    242  76  10  783
1477482493.465:    222  76  10  783
1477482493.466:    267  76  10  783
1477482493.468:    353  76  10  783
1477482493.470:    431  76  10  783
1477482493.473:    470  76  10  783
1477482493.477:    478  76  10  783
1477482493.477:    477  76  10  783
1477482493.479:    478  76  10  783
1477482493.480:    460  76  10  783
1477482493.558:    418  76  10  783
1477482493.566:    382  76  10  783
1477482493.566:    393  76  10  783
1477482493.566:    454  76  10  783
1477482493.567:    535  76  10  783
1477482493.567:    585  76  10  783
1477482493.567:    575  76  10  783
1477482493.567:    521  76  10  783
1477482493.567:    475  76  10  783
1477482493.568:    459  76  10  783
1477482493.568:    463  76  10  783
1477482493.568:    473  76  10  783
1477482493.569:    502  76  10  783
1477482493.569:    572  76  10  783
1477482493.569:    680  76  10  783
1477482493.571:    791  76  10  783
1477482493.572:    863  76  10  783
1477482493.573:    888  76  10  783
1477482493.573:    910  76  10  783
1477482493.573:    957  76  10  783
1477482493.573:   1017  76  10  783
1477482493.573:   1071  76  10  783
1477482493.574:   1136  76  10  783
1477482493.574:   1243  76  10  783
1477482493.574:   1395  76  10  783
1477482493.574:   1549  76  10  783
1477482493.574:   1655  76  10  783
1477482493.574:   1705  76  10  783
1477482493.575:   1744  76  10  783
1477482493.575:   1806  76  10  783
1477482493.575:   1864  76  10  783
1477482493.575:   1877  76  10  783
1477482493.575:   1863  76  10  783
1477482493.575:   1890  76  10  783
1477482493.575:   1993  76  10  783
1477482493.576:   2134  76  10  783
1477482493.576:   2214  76  10  783
1477482493.576:   2179  76  10  783
1477482493.577:   2078  76  10  783
1477482493.577:   2003  76  10  783
1477482493.577:   1971  76  10  783
1477482493.577:   1929  76  10  783
1477482493.577:   1837  76  10  783
1477482493.578:   1723  76  10  783
1477482493.578:   1647  76  10  783
1477482493.578:   1631  76  10  783
1477482493.579:   1623  76  10  783
1477482493.579:   1559  76  10  783
1477482493.579:   1445  76  10  783
1477482493.579:   1349  76  10  783
1477482493.579:   1303  76  10  783
1477482493.582:   1278  76  10  783
1477482493.586:   1240  76  10  783
1477482493.597:   1201  76  10  783
1477482493.597:   1204  76  10  783
1477482493.597:   1268  76  10  783
1477482493.597:   1350  76  10  783
1477482493.597:   1389  76  10  783
1477482493.597:   1368  76  10  783
1477482493.598:   1332  76  10  783
1477482493.599:   1315  76  10  783
1477482493.601:   1305  76  10  783
1477482493.608:   1279  76  10  783
1477482493.608:   1243  76  10  783
1477482493.609:   1219  76  10  783
1477482493.609:   1222  76  10  783
1477482493.610:   1223  76  10  783
1477482493.613:   1173  76  10  783
1477482493.614:   1055  76  10  783
1477482493.627:    917  76  10  783
1477482493.627:    812  76  10  783
1477482493.627:    760  76  10  783
1477482493.627:    742  76  10  783
1477482493.627:    734  76  10  783
1477482493.627:    730  76  10  783
1477482493.628:    745  76  10  783
1477482493.632:    788  76  10  783
1477482493.633:    828  76  10  783
1477482493.634:    821  76  10  783
1477482493.636:    758  76  10  783
1477482493.639:    676  76  10  783
1477482493.640:    616  76  10  783
1477482493.642:    594  76  10  783
1477482493.652:    587  76  10  783
1477482493.652:    568  76  10  783
1477482493.653:    540  76  10  783
1477482493.653:    541  76  10  783
1477482493.654:    583  76  10  783
1477482493.654:    622  76  10  783
1477482493.656:    603  76  10  783
1477482493.661:    513  76  10  783
1477482493.661:    398  76  10  783
1477482493.663:    325  76  10  783
1477482493.664:    328  76  10  783
1477482493.666:    379  76  10  783
1477482493.681:    424  76  10  783
1477482493.681:    444  76  10  783
1477482493.681:    444  76  10  783
1477482493.681:    431  76  10  783
1477482493.681:    408  76  10  783
1477482493.682:    379  76  10  783
1477482493.682:    336  76  10  783
1477482493.682:    281  76  10  783
1477482493.688:    222  76  10  783
1477482493.688:    179  76  10  783
1477482493.688:    156  76  10  783
1477482493.690:    146  76  10  783
1477482493.692:    125  76  10  783
1477482493.694:     68  76  10  783
1477482493.696:    -26  76  10  783
1477482493.697:   -125  76  10  783
1477482493.702:   -212  76  10  783
1477482493.702:   -281  76  10  783
1477482493.706:   -320  76  10  783
1477482493.706:   -309  76  10  783
1477482493.707:   -248  76  10  783
1477482493.708:   -161  76  10  783
1477482493.715:    -93  76  10  783
1477482493.717:    -79  76  10  783
1477482493.723:   -124  76  10  783
1477482493.723:   -198  76  10  783
1477482493.723:   -282  76  10  783
1477482493.723:   -381  76  10  783
1477482493.724:   -490  76  10  783
1477482493.724:   -580  76  10  783
1477482493.727:   -628  76  10  783
1477482493.728:   -629  76  10  783
1477482493.732:   -600  76  10  783
1477482493.733:   -568  76  10  783
1477482493.746:   -550  76  10  783
1477482493.746:   -551  76  10  783
1477482493.746:   -576  76  10  783
1477482493.746:   -629  76  10  783
1477482493.747:   -689  76  10  783
1477482493.747:   -711  76  10  783
1477482493.747:   -680  76  10  783
1477482493.748:   -629  76  10  783
1477482493.751:   -601  76  10  783
1477482493.752:   -604  76  10  783
1477482493.756:   -606  76  10  783
1477482493.756:   -576  76  10  783
1477482493.760:   -527  76  10  783
1477482493.761:   -503  76  10  783
1477482493.763:   -506  76  10  783
1477482493.764:   -482  76  10  783
1477482493.769:   -397  76  10  783
1477482493.769:   -289  76  10  783
1477482493.782:   -228  76  10  783
1477482493.782:   -241  76  10  783
1477482493.782:   -290  76  10  783
1477482493.782:   -324  76  10  783
1477482493.782:   -334  76  10  783
1477482493.783:   -368  76  10  783
1477482493.783:   -435  76  10  783
1477482493.783:   -487  76  10  783
1477482493.788:   -469  76  10  783
1477482493.788:   -386  76  10  783
1477482493.790:   -295  76  10  783
1477482493.794:   -245  76  10  783
1477482493.795:   -244  76  10  783
1477482493.796:   -267  76  10  783
1477482493.805:   -285  76  10  783
1477482493.806:   -305  76  10  783
1477482493.806:   -331  76  10  783
1477482493.806:   -348  76  10  783
1477482493.806:   -326  76  10  783
1477482493.812:   -260  76  10  783
1477482493.812:   -168  76  10  783
1477482493.812:    -92  76  10  783
1477482493.813:    -61  76  10  783
1477482493.815:    -68  76  10  783
1477482493.817:    -79  76  10  783
1477482493.820:    -83  76  10  783
1477482493.825:    -93  76  10  783
1477482493.825:   -110  76  10  783
1477482493.826:   -106  76  10  783
1477482493.830:    -61  76  10  783
1477482493.830:     16  76  10  783
1477482493.832:     81  76  10  783
1477482493.834:     97  76  10  783
1477482493.837:     69  76  10  783
1477482493.839:     36  76  10  783
1477482493.841:      6  76  10  783
1477482493.855:    -45  76  10  783
1477482493.855:   -117  76  10  783
1477482493.857:   -165  76  10  783
1477482493.857:   -160  76  10  783
1477482493.857:   -131  76  10  783
1477482493.858:   -134  76  10  783
1477482493.859:   -186  76  10  783
1477482493.859:   -241  76  10  783
1477482493.859:   -248  76  10  783
1477482493.860:   -219  76  10  783
1477482493.861:   -214  76  10  783
1477482493.865:   -249  76  10  783
1477482493.881:   -274  76  10  783
1477482493.881:   -276  76  10  783
1477482493.881:   -333  76  10  783
1477482493.881:   -537  76  10  783
1477482493.881:   -887  76  10  783
1477482493.882:  -1293  76  10  783
1477482493.882:  -1682  76  10  783
1477482493.883:  -2092  76  10  783
1477482493.883:  -2603  76  10  783
1477482493.883:  -3176  76  10  783
1477482493.886:  -3638  76  10  783
1477482493.887:  -3836  76  10  783
1477482493.889:  -3774  76  10  783
1477482493.893:  -3536  76  10  783
1477482493.894:  -3152  76  10  783
1477482493.895:  -2579  76  10  783
1477482493.896:  -1821  76  10  783
1477482493.900:  -1011  76  10  783
1477482493.901:   -345  76  10  783
1477482493.902:    116  76  10  783
1477482493.923:    478  76  10  783
1477482493.923:    858  76  10  783
1477482493.924:   1216  76  10  783
1477482493.924:   1409  76  10  783
1477482493.924:   1359  76  10  783
1477482493.925:   1151  76  10  783
1477482493.925:    960  76  10  783
1477482493.925:    913  76  10  783
1477482493.925:    997  76  10  783
1477482493.925:   1137  76  10  783
1477482493.926:   1279  76  10  783
1477482493.926:   1428  76  10  783
1477482493.927:   1598  76  10  783
1477482493.930:   1783  76  10  783
1477482493.934:   1949  76  10  783
1477482493.935:   2056  76  10  783
1477482493.947:   2088  76  10  783
1477482493.947:   2054  76  10  783
1477482493.948:   1968  76  10  783
1477482493.948:   1841  76  10  783
1477482493.948:   1708  76  10  783
1477482493.949:   1630  76  10  783
1477482493.949:   1650  76  10  783
1477482493.949:   1749  76  10  783
1477482493.953:   1854  76  10  783
1477482493.953:   1895  76  10  783
1477482493.955:   1854  76  10  783
1477482493.960:   1771  76  10  783
1477482493.961:   1673  76  10  783
1477482493.963:   1552  76  10  783
1477482493.964:   1414  76  10  783
1477482493.967:   1317  76  10  783
1477482493.982:   1315  76  10  783
1477482493.982:   1390  76  10  783
1477482493.983:   1462  76  10  783
1477482493.983:   1453  76  10  783
1477482493.983:   1357  76  10  783
1477482493.984:   1234  76  10  783
1477482493.984:   1132  76  10  783
1477482493.984:   1043  76  10  783
1477482493.985:    954  76  10  783
1477482494.009:    881  76  10  783
1477482494.009:    853  76  10  783
1477482494.014:    862  74   9  790
1477482494.014:    874  74   9  790
1477482494.014:    849  74   9  790
1477482494.014:    782  74   9  790
1477482494.014:    699  74   9  790
1477482494.015:    628  74   9  790
1477482494.015:    558  74   9  790
1477482494.015:    483  74   9  790
1477482494.016:    421  74   9  790
1477482494.016:    401  74   9  790
1477482494.016:    422  74   9  790
1477482494.017:    464  74   9  790
1477482494.017:    491  74   9  790
1477482494.017:    486  74   9  790
1477482494.018:    456  74   9  790
1477482494.020:    426  74   9  790
1477482494.022:    395  74   9  790
1477482494.022:    357  74   9  790
1477482494.023:    324  74   9  790
1477482494.024:    323  74   9  790
1477482494.030:    363  74   9  790
1477482494.031:    423  74   9  790
1477482494.032:    459  74   9  790
1477482494.035:    437  74   9  790
1477482494.036:    368  74   9  790
1477482494.050:    306  74   9  790
1477482494.051:    275  74   9  790
1477482494.051:    260  74   9  790
1477482494.051:    239  74   9  790
1477482494.051:    232  74   9  790
1477482494.051:    269  74   9  790
1477482494.051:    355  74   9  790
1477482494.052:    441  74   9  790
1477482494.086:    471  74   9  790
1477482494.087:    438  74   9  790
1477482494.088:    403  74   9  790
1477482494.092:    400  74   9  790
1477482494.092:    402  74   9  790
1477482494.092:    364  74   9  790
1477482494.093:    302  74   9  790
1477482494.093:    278  74   9  790
1477482494.093:    321  74   9  790
1477482494.093:    385  74   9  790
1477482494.093:    393  74   9  790
1477482494.095:    323  74   9  790
1477482494.095:    233  74   9  790
1477482494.095:    184  74   9  790
1477482494.096:    155  74   9  790
1477482494.096:    103  74   9  790
1477482494.097:     38  74   9  790
1477482494.098:     25  74   9  790
1477482494.098:     94  74   9  790
1477482494.098:    195  74   9  790
1477482494.098:    235  74   9  790
1477482494.099:    183  74   9  790
1477482494.099:    107  74   9  790
1477482494.099:     91  74   9  790
1477482494.101:    126  74   9  790
1477482494.104:    146  74   9  790
1477482494.104:    125  74   9  790
1477482494.108:    115  74   9  790
1477482494.119:    172  74   9  790
1477482494.119:    294  74   9  790
1477482494.120:    409  74   9  790
1477482494.120:    457  74   9  790
1477482494.120:    450  74   9  790
1477482494.121:    443  74   9  790
1477482494.121:    449  74   9  790
1477482494.123:    450  74   9  790
1477482494.127:    441  74   9  790
1477482494.127:    463  74   9  790
1477482494.129:    544  74   9  790
1477482494.130:    662  74   9  790
1477482494.132:    748  74   9  790
1477482494.136:    762  74   9  790
1477482494.143:    728  74   9  790
1477482494.144:    714  74   9  790
1477482494.144:    727  74   9  790
1477482494.144:    730  74   9  790
1477482494.145:    693  74   9  790
1477482494.145:    648  74   9  790
1477482494.149:    647  74   9  790
1477482494.150:    709  74   9  790
1477482494.153:    781  74   9  790
1477482494.153:    792  74   9  790
1477482494.159:    724  74   9  790
1477482494.159:    635  74   9  790
1477482494.160:    580  74   9  790
1477482494.162:    556  74   9  790
1477482494.162:    528  74   9  790
1477482494.168:    497  74   9  790
1477482494.168:    489  74   9  790
1477482494.170:    527  74   9  790
1477482494.188:    589  74   9  790
1477482494.188:    626  74   9  790
1477482494.189:    613  74   9  790
1477482494.189:    581  74   9  790
1477482494.189:    556  74   9  790
1477482494.190:    530  74   9  790
1477482494.190:    497  74   9  790
1477482494.190:    490  74   9  790
1477482494.190:    556  74   9  790
1477482494.191:    690  74   9  790
1477482494.192:    836  74   9  790
1477482494.193:    932  74   9  790
1477482494.194:    966  74   9  790
1477482494.200:    982  74   9  790
1477482494.209:   1020  74   9  790
1477482494.209:   1072  74   9  790
1477482494.210:   1131  74   9  790
1477482494.210:   1208  74   9  790
1477482494.210:   1311  74   9  790
1477482494.210:   1414  74   9  790
1477482494.214:   1484  74   9  790
1477482494.214:   1519  74   9  790
1477482494.214:   1535  74   9  790
1477482494.216:   1542  74   9  790
1477482494.217:   1520  74   9  790
1477482494.219:   1429  74   9  790
1477482494.223:   1277  74   9  790
1477482494.226:   1124  74   9  790
1477482494.227:   1025  74   9  790
1477482494.229:    979  74   9  790
1477482494.229:    958  74   9  790
1477482494.232:    931  74   9  790
1477482494.233:    879  74   9  790
1477482494.236:    797  74   9  790
1477482494.252:    707  74   9  790
1477482494.252:    630  74   9  790
1477482494.252:    592  74   9  790
1477482494.253:    608  74   9  790
1477482494.253:    661  74   9  790
1477482494.254:    710  74   9  790
1477482494.254:    736  74   9  790
1477482494.254:    748  74   9  790
1477482494.254:    756  74   9  790
1477482494.257:    743  74   9  790
1477482494.258:    697  74   9  790
1477482494.258:    621  74   9  790
1477482494.261:    552  74   9  790
1477482494.265:    531  74   9  790
1477482494.273:    564  74   9  790
1477482494.273:    607  74   9  790
1477482494.273:    632  74   9  790
1477482494.273:    656  74   9  790
1477482494.273:    708  74   9  790
1477482494.275:    776  74   9  790
1477482494.277:    816  74   9  790
1477482494.282:    792  74   9  790
1477482494.283:    723  74   9  790
1477482494.284:    672  74   9  790
1477482494.285:    684  74   9  790
1477482494.286:    739  74   9  790
1477482494.293:    788  74   9  790
1477482494.293:    807  74   9  790
1477482494.298:    802  74   9  790
1477482494.299:    778  74   9  790
1477482494.299:    735  74   9  790
1477482494.299:    675  74   9  790
1477482494.300:    603  74   9  790
1477482494.302:    539  74   9  790
1477482494.306:    499  74   9  790
1477482494.309:    486  74   9  790
1477482494.321:    487  74   9  790
1477482494.378:    496  74   9  790
1477482494.388:    499  74   9  790
1477482494.388:    470  74   9  790
1477482494.388:    407  74   9  790
1477482494.388:    336  74   9  790
1477482494.389:    279  74   9  790
1477482494.389:    248  74   9  790
1477482494.389:    241  74   9  790
1477482494.390:    254  74   9  790
1477482494.390:    283  74   9  790
1477482494.391:    332  74   9  790
1477482494.391:    388  74   9  790
1477482494.391:    422  74   9  790
1477482494.392:    415  74   9  790
1477482494.392:    379  74   9  790
1477482494.393:    335  74   9  790
1477482494.394:    311  74   9  790
1477482494.394:    328  74   9  790
1477482494.394:    386  74   9  790
1477482494.394:    457  74   9  790
1477482494.394:    515  74   9  790
1477482494.394:    547  74   9  790
1477482494.394:    556  74   9  790
1477482494.395:    547  74   9  790
1477482494.395:    526  74   9  790
1477482494.395:    473  74   9  790
1477482494.395:    386  74   9  790
1477482494.395:    301  74   9  790
1477482494.395:    271  74   9  790
1477482494.395:    307  74   9  790
1477482494.395:    376  74   9  790
1477482494.396:    423  74   9  790
1477482494.396:    426  74   9  790
1477482494.396:    397  74   9  790
1477482494.396:    369  74   9  790
1477482494.396:    346  74   9  790
1477482494.396:    317  74   9  790
1477482494.396:    287  74   9  790
1477482494.397:    285  74   9  790
1477482494.397:    321  74   9  790
1477482494.397:    381  74   9  790
1477482494.397:    438  74   9  790
1477482494.397:    475  74   9  790
1477482494.397:    482  74   9  790
1477482494.397:    463  74   9  790
1477482494.400:    410  74   9  790
1477482494.402:    314  74   9  790
1477482494.402:    181  74   9  790
1477482494.406:     29  74   9  790
1477482494.407:   -127  74   9  790
1477482494.410:   -278  74   9  790
1477482494.411:   -411  74   9  790
1477482494.412:   -529  74   9  790
1477482494.434:   -655  74   9  790
1477482494.434:   -802  74   9  790
1477482494.435:   -946  74   9  790
1477482494.435:  -1048  74   9  790
1477482494.435:  -1071  74   9  790
1477482494.435:  -1018  74   9  790
1477482494.435:   -925  74   9  790
1477482494.436:   -831  74   9  790
1477482494.436:   -745  74   9  790
1477482494.436:   -670  74   9  790
1477482494.436:   -624  74   9  790
1477482494.438:   -619  74   9  790
1477482494.438:   -639  74   9  790
1477482494.440:   -664  74   9  790
1477482494.441:   -676  74   9  790
1477482494.443:   -664  74   9  790
1477482494.446:   -623  74   9  790
1477482494.447:   -555  74   9  790
1477482494.452:   -455  74   9  790
1477482494.452:   -338  74   9  790
1477482494.468:   -227  74   9  790
1477482494.468:   -142  74   9  790
1477482494.469:    -75  74   9  790
1477482494.470:    -22  74   9  790
1477482494.472:     34  74   9  790
1477482494.475:    128  74   9  790
1477482494.476:    296  74   9  790
1477482494.478:    533  74   9  790
1477482494.490:    797  74   9  790
1477482494.490:   1039  74   9  790
1477482494.491:   1248  74   9  790
1477482494.491:   1455  74   9  790
1477482494.491:   1697  74   9  790
1477482494.492:   1958  74   9  790
1477482494.492:   2192  74   9  790
1477482494.493:   2391  74   9  790
1477482494.493:   2596  74   9  790
1477482494.493:   2837  74   9  790
1477482494.493:   3080  74   9  790
1477482494.494:   3249  74   9  790
1477482494.494:   3299  74   9  790
1477482494.496:   3255  74   9  790
1477482494.497:   3192  74   9  790
1477482494.498:   3126  74   9  790
1477482494.509:   3015  74   9  790
1477482494.509:   2831  74   9  790
1477482494.509:   2636  74   9  790
1477482494.509:   2515  74   9  790
1477482494.510:   2493  74   9  790
1477482494.511:   2499  74   9  790
1477482494.512:   2445  74   9  790
1477482494.513:   2315  74   9  790
1477482494.519:   2183  74   9  790
1477482494.520:   2110  74   9  790
1477482494.521:   2075  74   9  790
1477482494.523:   2021  74   9  790
1477482494.525:   1929  74   9  790
1477482494.526:   1832  74   9  790
1477482494.527:   1755  74   9  790
1477482494.533:   1685  74   9  790
1477482494.533:   1578  74   9  790
1477482494.535:   1408  74   9  790
1477482494.536:   1206  74   9  790
1477482494.539:   1021  74   9  790
1477482494.540:    866  74   9  790
1477482494.541:    733  74   9  790
1477482494.547:    625  74   9  790
1477482494.547:    566  74   9  790
1477482494.562:    569  74   9  790
1477482494.562:    619  74   9  790
1477482494.562:    654  74   9  790
1477482494.563:    617  74   9  790
1477482494.563:    497  74   9  790
1477482494.563:    350  74   9  790
1477482494.563:    229  74   9  790
1477482494.563:    154  74   9  790
1477482494.567:    119  74   9  790
1477482494.567:    116  74   9  790
1477482494.569:    141  74   9  790
1477482494.570:    200  74   9  790
1477482494.571:    272  74   9  790
1477482494.573:    330  74   9  790
1477482494.584:    353  74   9  790
1477482494.584:    352  74   9  790
1477482494.584:    320  74   9  790
1477482494.585:    243  74   9  790
1477482494.585:    126  74   9  790
1477482494.588:     15  74   9  790
1477482494.589:    -45  74   9  790
1477482494.590:    -45  74   9  790
1477482494.592:    -24  74   9  790
1477482494.592:    -31  74   9  790
1477482494.599:    -79  74   9  790
1477482494.599:   -120  74   9  790
1477482494.602:   -115  74   9  790
1477482494.602:    -51  74   9  790
1477482494.604:     61  74   9  790
1477482494.605:    208  74   9  790
1477482494.624:    370  74   9  790
1477482494.624:    526  74   9  790
1477482494.624:    664  74   9  790
1477482494.625:    779  74   9  790
1477482494.625:    856  74   9  790
1477482494.626:    888  74   9  790
1477482494.627:    888  74   9  790
1477482494.628:    882  74   9  790
1477482494.629:    913  74   9  790
1477482494.629:   1007  74   9  790
1477482494.629:   1157  74   9  790
1477482494.630:   1340  74   9  790
1477482494.632:   1553  74   9  790
1477482494.633:   1788  74   9  790
1477482494.645:   2008  74   9  790
1477482494.645:   2160  74   9  790
1477482494.646:   2211  74   9  790
1477482494.646:   2162  74   9  790
1477482494.647:   2052  74   9  790
1477482494.647:   1911  74   9  790
1477482494.648:   1744  74   9  790
1477482494.648:   1535  74   9  790
1477482494.650:   1291  74   9  790
1477482494.652:   1027  74   9  790
1477482494.657:    757  74   9  790
1477482494.657:    496  74   9  790
1477482494.660:    268  74   9  790
1477482494.661:     74  74   9  790
1477482494.662:    -92  74   9  790
1477482494.664:   -234  74   9  790
1477482494.666:   -336  74   9  790
1477482494.670:   -382  74   9  790
1477482494.671:   -378  74   9  790
1477482494.673:   -372  74   9  790
1477482494.674:   -431  74   9  790
1477482494.678:   -586  74   9  790
1477482494.688:   -823  74   9  790
1477482494.690:  -1130  74   9  790
1477482494.690:  -1515  74   9  790
1477482494.692:  -1978  74   9  790
1477482494.692:  -2476  74   9  790
1477482494.693:  -2971  74   9  790
1477482494.694:  -3467  74   9  790
1477482494.694:  -4016  74   9  790
1477482494.695:  -4635  74   9  790
1477482494.701:  -5253  74   9  790
1477482494.705:  -5741  74   9  790
1477482494.705:  -6034  74   9  790
1477482494.705:  -6148  74   9  790
1477482494.705:  -6093  74   9  790
1477482494.706:  -5814  74   9  790
1477482494.709:  -5286  74   9  790
1477482494.712:  -4613  74   9  790
1477482494.712:  -4002  74   9  790
1477482494.713:  -3605  74   9  790
1477482494.715:  -3401  74   9  790
1477482494.716:  -3252  74   9  790
1477482494.719:  -3105  74   9  790
1477482494.721:  -3056  74   9  790
1477482494.726:  -3202  74   9  790
1477482494.727:  -3500  74   9  790
1477482494.727:  -3787  74   9  790
1477482494.728:  -3925  74   9  790
1477482494.730:  -3907  74   9  790
1477482494.732:  -3836  74   9  790
1477482494.735:  -3818  74   9  790
1477482494.740:  -3873  74   9  790
1477482494.740:  -3959  74   9  790
1477482494.754:  -4036  74   9  790
1477482494.755:  -4078  74   9  790
1477482494.755:  -4079  74   9  790
1477482494.755:  -4056  74   9  790
1477482494.756:  -4052  74   9  790
1477482494.756:  -4086  74   9  790
1477482494.756:  -4151  74   9  790
1477482494.758:  -4223  74   9  790
1477482494.758:  -4277  74   9  790
1477482494.758:  -4304  74   9  790
1477482494.760:  -4312  74   9  790
1477482494.763:  -4291  74   9  790
1477482494.774:  -4224  74   9  790
1477482494.774:  -4121  74   9  790
1477482494.774:  -4031  74   9  790
1477482494.775:  -3980  74   9  790
1477482494.775:  -3948  74   9  790
1477482494.776:  -3883  74   9  790
1477482494.776:  -3753  74   9  790
1477482494.778:  -3578  74   9  790
1477482494.780:  -3418  74   9  790
1477482494.782:  -3291  74   9  790
1477482494.792:  -3151  74   9  790
1477482494.792:  -2948  74   9  790
1477482494.794:  -2700  74   9  790
1477482494.794:  -2466  74   9  790
1477482494.796:  -2284  74   9  790
1477482494.797:  -2140  74   9  790
1477482494.798:  -2001  74   9  790
1477482494.799:  -1847  74   9  790
1477482494.799:  -1698  74   9  790
1477482494.802:  -1562  74   9  790
1477482494.813:  -1413  74   9  790
1477482494.813:  -1220  74   9  790
1477482494.813:  -1005  74   9  790
1477482494.814:   -810  74   9  790
1477482494.814:   -655  74   9  793
1477482494.816:   -520  74   9  793
1477482494.816:   -390  74   9  793
1477482494.817:   -270  74   9  793
1477482494.818:   -183  74   9  793
1477482494.821:   -131  74   9  793
1477482494.834:    -74  74   9  793
1477482494.835:     31  74   9  793
1477482494.835:    185  74   9  793
1477482494.835:    357  74   9  793
1477482494.835:    522  74   9  793
1477482494.836:    669  74   9  793
1477482494.836:    788  74   9  793
1477482494.837:    876  74   9  793
1477482494.839:    937  74   9  793
1477482494.840:    984  74   9  793
1477482494.844:   1044  74   9  793
1477482494.845:   1135  74   9  793
1477482494.846:   1256  74   9  793
1477482494.850:   1395  74   9  793
1477482494.865:   1549  74   9  793
1477482494.866:   1700  74   9  793
1477482494.867:   1809  74   9  793
1477482494.868:   1865  74   9  793
1477482494.869:   1897  74   9  793
1477482494.869:   1936  74   9  793
1477482494.869:   1991  74   9  793
1477482494.869:   2052  74   9  793
1477482494.870:   2119  74   9  793
1477482494.870:   2199  74   9  793
1477482494.872:   2288  74   9  793
1477482494.873:   2358  74   9  793
1477482494.874:   2390  74   9  793
1477482494.875:   2407  74   9  793
1477482494.882:   2433  74   9  793
1477482494.882:   2430  74   9  793
1477482494.897:   2360  74   9  793
1477482494.897:   2282  74   9  793
1477482494.898:   2339  74   9  793
1477482494.898:   2573  74   9  793
1477482494.899:   2817  74   9  793
1477482494.899:   2818  74   9  793
1477482494.899:   2515  74   9  793
1477482494.899:   2129  74   9  793
1477482494.899:   1942  74   9  793
1477482494.900:   1972  74   9  793
1477482494.902:   1983  74   9  793
1477482494.903:   1785  74   9  793
1477482494.910:   1462  74   9  793
1477482494.911:   1255  74   9  793
1477482494.912:   1295  74   9  793
1477482494.912:   1482  74   9  793
1477482494.914:   1629  74   9  793
1477482494.915:   1651  74   9  793
1477482494.917:   1600  74   9  793
1477482494.920:   1527  74   9  793
1477482494.921:   1435  74   9  793
1477482494.923:   1334  74   9  793
1477482494.926:   1280  74   9  793
1477482494.927:   1315  74   9  793
1477482494.929:   1401  74   9  793
1477482494.930:   1447  74   9  793
1477482494.943:   1406  74   9  793
1477482494.943:   1328  74   9  793
1477482494.944:   1308  74   9  793
1477482494.945:   1377  74   9  793
1477482494.945:   1476  74   9  793
1477482494.946:   1541  74   9  793
1477482494.946:   1572  74   9  793
1477482494.947:   1610  74   9  793
1477482494.954:   1673  74   9  793
1477482494.955:   1732  74   9  793
1477482494.965:   1741  74   9  793
1477482494.965:   1695  74   9  793
1477482494.966:   1644  74   9  793
1477482494.966:   1625  74   9  793
1477482494.966:   1611  74   9  793
1477482494.967:   1563  74   9  793
1477482494.967:   1486  74   9  793
1477482494.968:   1435  74   9  793
1477482494.969:   1453  74   9  793
1477482494.970:   1527  74   9  793
1477482494.973:   1587  74   9  793
1477482494.979:   1580  74   9  793
1477482494.979:   1523  74   9  793
1477482494.980:   1475  74   9  793
1477482494.980:   1458  74   9  793
1477482494.983:   1458  74   9  793
1477482494.986:   1453  74   9  793
1477482494.986:   1460  74   9  793
1477482494.989:   1504  74   9  793
1477482494.990:   1594  74   9  793
1477482494.991:   1690  74   9  793
1477482494.995:   1744  74   9  793
1477482494.996:   1751  74   9  793
1477482494.997:   1758  74   9  793
1477482495.011:   1786  74   9  793
1477482495.011:   1821  74   9  793
1477482495.012:   1835  74   9  793
1477482495.012:   1839  74   9  793
1477482495.013:   1874  74   9  793
1477482495.013:   1971  74   9  793
1477482495.014:   2092  74   9  793
1477482495.016:   2164  74   9  793
1477482495.018:   2147  74   9  793
1477482495.019:   2092  74   9  793
1477482495.030:   2065  74   9  793
1477482495.030:   2091  74   9  793
1477482495.031:   2140  74   9  793
1477482495.031:   2180  74   9  793
1477482495.032:   2208  74   9  793
1477482495.033:   2253  74   9  793
1477482495.033:   2324  74   9  793
1477482495.034:   2387  74   9  793
1477482495.035:   2395  74   9  793
1477482495.036:   2350  74   9  793
1477482495.039:   2276  74   9  793
1477482495.041:   2197  74   9  793
1477482495.050:   2128  74   9  793
1477482495.050:   2094  74   9  793
1477482495.050:   2101  74   9  793
1477482495.050:   2140  74   9  793
1477482495.051:   2180  74   9  793
1477482495.052:   2194  74   9  793
1477482495.055:   2180  74   9  793
1477482495.089:   2160  74   9  793
1477482495.091:   2143  74   9  793
1477482495.091:   2104  74   9  793
1477482495.091:   2041  74   9  793
1477482495.091:   1996  74   9  793
1477482495.093:   2021  74   9  793
1477482495.093:   2107  74   9  793
1477482495.093:   2188  74   9  793
1477482495.093:   2202  74   9  793
1477482495.095:   2154  74   9  793
1477482495.098:   2119  74   9  793
1477482495.101:   2152  74   9  793
1477482495.102:   2215  74   9  793
1477482495.102:   2245  74   9  793
1477482495.102:   2233  74   9  793
1477482495.102:   2234  74   9  793
1477482495.102:   2295  74   9  793
1477482495.103:   2398  74   9  793
1477482495.103:   2472  74   9  793
1477482495.104:   2468  74   9  793
1477482495.104:   2415  74   9  793
1477482495.107:   2378  74   9  793
1477482495.109:   2366  74   9  793
1477482495.120:   2354  74   9  793
1477482495.191:   2339  74   9  793
1477482495.195:   2367  74   9  793
1477482495.196:   2465  74   9  793
1477482495.196:   2607  74   9  793
1477482495.196:   2718  74   9  793
1477482495.196:   2746  74   9  793
1477482495.196:   2707  74   9  793
1477482495.196:   2665  74   9  793
1477482495.196:   2643  74   9  793
1477482495.196:   2629  74   9  793
1477482495.197:   2608  74   9  793
1477482495.197:   2598  74   9  793
1477482495.197:   2616  74   9  793
1477482495.197:   2661  74   9  793
1477482495.197:   2705  74   9  793
1477482495.197:   2719  74   9  793
1477482495.197:   2691  74   9  793
1477482495.198:   2637  74   9  793
1477482495.198:   2557  74   9  793
1477482495.198:   2446  74   9  793
1477482495.198:   2310  74   9  793
1477482495.198:   2178  74   9  793
1477482495.199:   2077  74   9  793
1477482495.199:   2005  74   9  793
1477482495.199:   1932  74   9  793
1477482495.199:   1813  74   9  793
1477482495.199:   1629  74   9  793
1477482495.199:   1413  74   9  793
1477482495.199:   1217  74   9  793
1477482495.200:   1050  74   9  793
1477482495.200:    894  74   9  793
1477482495.200:    738  74   9  793
1477482495.200:    600  74   9  793
1477482495.200:    511  74   9  793
1477482495.200:    466  74   9  793
1477482495.200:    413  74   9  793
1477482495.201:    301  74   9  793
1477482495.201:    146  74   9  793
1477482495.201:      8  74   9  793
1477482495.201:    -86  74   9  793
1477482495.201:   -161  74   9  793
1477482495.201:   -246  74   9  793
1477482495.201:   -334  74   9  793
1477482495.202:   -397  74   9  793
1477482495.202:   -422  74   9  793
1477482495.202:   -448  74   9  793
1477482495.202:   -532  74   9  793
1477482495.202:   -676  74   9  793
1477482495.202:   -821  74   9  793
1477482495.202:   -921  74   9  793
1477482495.202:   -972  74   9  793
1477482495.204:   -991  74   9  793
1477482495.204:   -985  74   9  793
1477482495.207:   -942  74   9  793
1477482495.210:   -849  74   9  793
1477482495.211:   -727  74   9  793
1477482495.215:   -632  74   9  793
1477482495.216:   -599  74   9  793
1477482495.217:   -609  74   9  793
1477482495.219:   -625  74   9  793
1477482495.221:   -611  74   9  793
1477482495.236:   -565  74   9  793
1477482495.236:   -491  74   9  793
1477482495.237:   -397  74   9  793
1477482495.238:   -279  74   9  793
1477482495.238:   -154  74   9  793
1477482495.239:    -57  74   9  793
1477482495.239:    -17  74   9  793
1477482495.240:    -18  74   9  793
1477482495.240:    -30  74   9  793
1477482495.241:    -33  74   9  793
1477482495.245:    -33  74   9  793
1477482495.245:    -41  74   9  793
1477482495.256:    -64  74   9  793
1477482495.256:    -85  74   9  793
1477482495.256:    -86  74   9  793
1477482495.257:    -74  74   9  793
1477482495.257:    -86  74   9  793
1477482495.257:   -143  74   9  793
1477482495.259:   -247  74   9  793
1477482495.261:   -380  74   9  793
1477482495.262:   -497  74   9  793
1477482495.289:   -556  74   9  793
1477482495.290:   -557  74   9  793
1477482495.291:   -535  74   9  793
1477482495.311:   -528  74   9  793
1477482495.311:   -548  74   9  793
1477482495.311:   -576  74   9  793
