timestamp: ADC HeartRate4sAverage HeartRate30sAverage HRV8sAverage
1477470798.245:   -402  83  11  713
1477470798.245:   -421  83  11  713
1477470798.246:   -440  83  11  713
1477470798.290:   -465  83  11  713
1477470798.297:   -497  83  11  713
1477470798.297:   -535  83  11  713
1477470798.297:   -578  83  11  713
1477470798.297:   -621  83  11  713
1477470798.298:   -657  83  11  713
1477470798.301:   -687  83  11  713
1477470798.301:   -714  83  11  713
1477470798.302:   -747  83  11  713
1477470798.302:   -786  83  11  713
1477470798.302:   -828  83  11  713
1477470798.302:   -868  83  11  713
1477470798.303:   -904  83  11  713
1477470798.303:   -937  83  11  713
1477470798.303:   -970  83  11  713
1477470798.303:  -1003  83  11  713
1477470798.304:  -1038  83  11  713
1477470798.304:  -1074  83  11  713
1477470798.304:  -1105  83  11  713
1477470798.304:  -1129  83  11  713
1477470798.305:  -1146  83  11  714
1477470798.305:  -1162  83  11  714
1477470798.305:  -1179  83  11  714
1477470798.306:  -1194  83  11  714
1477470798.307:  -1205  83  11  714
1477470798.318:  -1208  83  11  714
1477470798.318:  -1207  83  11  714
1477470798.318:  -1205  83  11  714
1477470798.318:  -1202  83  11  714
1477470798.319:  -1197  83  11  714
1477470798.319:  -1187  83  11  714
1477470798.319:  -1172  83  11  714
1477470798.320:  -1155  83  11  714
1477470798.320:  -1131  83  11  714
1477470798.320:  -1101  83  11  714
1477470798.320:  -1063  83  11  714
1477470798.321:  -1019  83  11  714
1477470798.321:   -969  83  11  714
1477470798.321:   -912  83  11  714
1477470798.321:   -850  83  11  714
1477470798.321:   -788  83  11  714
1477470798.322:   -730  83  11  714
1477470798.322:   -670  83  11  714
1477470798.322:   -600  83  11  714
1477470798.322:   -520  83  11  714
1477470798.323:   -442  83  11  714
1477470798.323:   -377  83  11  714
1477470798.323:   -321  83  11  714
1477470798.323:   -258  83  11  714
1477470798.324:   -179  83  11  714
1477470798.327:    -96  83  11  714
1477470798.334:    -26  83  11  714
1477470798.375:     29  83  11  714
1477470798.376:     84  83  11  714
1477470798.378:    150  83  11  714
1477470798.378:    215  83  11  714
1477470798.381:    262  83  11  714
1477470798.390:    291  83  11  714
1477470798.390:    320  83  11  714
1477470798.392:    361  83  11  714
1477470798.392:    404  83  11  714
1477470798.392:    430  83  11  714
1477470798.393:    438  83  11  714
1477470798.393:    448  83  11  714
1477470798.393:    478  83  11  714
1477470798.393:    520  83  11  714
1477470798.393:    554  83  11  714
1477470798.394:    568  83  11  714
1477470798.394:    571  83  11  714
1477470798.394:    579  83  11  714
1477470798.394:    592  83  11  714
1477470798.394:    599  83  11  714
1477470798.395:    592  83  11  714
1477470798.395:    578  83  11  714
1477470798.395:    566  83  11  714
1477470798.395:    558  83  11  714
1477470798.395:    548  83  11  714
1477470798.413:    534  83  11  714
1477470798.413:    522  83  11  714
1477470798.423:    523  83  11  714
1477470798.424:    536  83  11  714
1477470798.424:    550  83  11  714
1477470798.424:    553  83  11  714
1477470798.424:    544  83  11  714
1477470798.425:    535  83  11  714
1477470798.425:    531  83  11  714
1477470798.425:    529  83  11  714
1477470798.426:    522  83  11  714
1477470798.426:    506  83  11  714
1477470798.426:    486  83  11  714
1477470798.426:    467  83  11  714
1477470798.427:    450  83  11  714
1477470798.428:    437  83  11  714
1477470798.428:    429  83  11  714
1477470798.428:    428  83  11  714
1477470798.429:    432  83  11  714
1477470798.429:    437  83  11  714
1477470798.429:    440  83  11  714
1477470798.429:    440  83  11  714
1477470798.430:    441  83  11  714
1477470798.430:    440  83  11  714
1477470798.430:    437  83  11  714
1477470798.430:    433  83  11  714
1477470798.430:    430  83  11  714
1477470798.431:    430  83  11  714
1477470798.441:    435  83  11  714
1477470798.441:    442  83  11  714
1477470798.441:    448  83  11  714
1477470798.442:    451  83  11  714
1477470798.443:    451  83  11  714
1477470798.443:    450  83  11  714
1477470798.443:    445  83  11  714
1477470798.443:    433  83  11  714
1477470798.447:    412  83  11  714
1477470798.447:    387  83  11  714
1477470798.450:    366  83  11  714
1477470798.450:    357  83  11  714
1477470798.458:    359  83  11  714
1477470798.458:    364  83  11  714
1477470798.458:    368  83  11  714
1477470798.461:    369  83  11  714
1477470798.461:    368  83  11  714
1477470798.463:    367  83  11  714
1477470798.464:    365  83  11  714
1477470798.469:    359  83  11  714
1477470798.475:    347  83  11  714
1477470798.476:    327  83  11  714
1477470798.476:    304  83  11  714
1477470798.476:    282  83  11  714
1477470798.476:    267  83  11  714
1477470798.478:    257  83  11  714
1477470798.480:    252  83  11  714
1477470798.483:    250  83  11  714
1477470798.496:    249  83  11  714
1477470798.496:    248  83  11  714
1477470798.496:    246  83  11  714
1477470798.496:    244  83  11  714
1477470798.496:    242  83  11  714
1477470798.496:    243  83  11  714
1477470798.497:    241  83  11  714
1477470798.497:    231  83  11  714
1477470798.502:    213  83  11  714
1477470798.502:    193  83  11  714
1477470798.506:    178  83  11  714
1477470798.506:    172  83  11  714
1477470798.514:    172  83  11  714
1477470798.514:    174  83  11  714
1477470798.515:    176  83  11  714
1477470798.539:    181  83  11  714
1477470798.540:    189  83  11  714
1477470798.541:    202  83  11  714
1477470798.542:    217  83  11  714
1477470798.544:    230  83  11  714
1477470798.558:    238  83  11  714
1477470798.558:    243  83  11  714
1477470798.559:    247  83  11  714
1477470798.560:    252  83  11  714
1477470798.561:    256  83  11  714
1477470798.562:    254  83  11  714
1477470798.564:    252  83  11  714
1477470798.564:    255  83  11  714
1477470798.575:    267  83  11  714
1477470798.575:    281  83  11  714
1477470798.575:    289  83  11  714
1477470798.576:    288  83  11  714
1477470798.576:    284  83  11  714
1477470798.576:    284  83  11  714
1477470798.576:    288  83  11  714
1477470798.576:    288  83  11  714
1477470798.577:    281  83  11  714
1477470798.577:    272  83  11  714
1477470798.577:    267  83  11  714
1477470798.577:    269  83  11  714
1477470798.578:    274  83  11  714
1477470798.578:    277  83  11  714
1477470798.578:    280  83  11  714
1477470798.578:    284  83  11  714
1477470798.578:    289  83  11  714
1477470798.579:    296  83  11  714
1477470798.579:    304  83  11  714
1477470798.579:    312  83  11  714
1477470798.579:    317  83  11  714
1477470798.581:    315  83  11  714
1477470798.583:    308  83  11  714
1477470798.583:    304  83  11  714
1477470798.592:    306  83  11  714
1477470798.594:    315  83  11  714
1477470798.595:    323  83  11  714
1477470798.597:    326  83  11  714
1477470798.597:    326  83  11  714
1477470798.598:    329  83  11  714
1477470798.600:    337  83  11  714
1477470798.602:    348  83  11  714
1477470798.610:    355  83  11  714
1477470798.706:    355  83  11  714
1477470798.707:    350  83  11  714
1477470798.707:    351  83  11  714
1477470798.707:    363  83  11  714
1477470798.707:    384  83  11  714
1477470798.707:    404  83  11  714
1477470798.708:    416  83  11  714
1477470798.708:    419  83  11  714
1477470798.708:    419  83  11  714
1477470798.708:    412  83  11  714
1477470798.708:    395  83  11  714
1477470798.709:    365  83  11  714
1477470798.709:    329  83  11  714
1477470798.709:    298  83  11  714
1477470798.709:    268  83  11  714
1477470798.709:    234  83  11  714
1477470798.709:    196  83  11  714
1477470798.710:    165  83  11  714
1477470798.710:    153  83  11  714
1477470798.710:    154  83  11  714
1477470798.710:    149  83  11  714
1477470798.710:    126  83  11  714
1477470798.710:     91  83  11  714
1477470798.711:     63  83  11  714
1477470798.711:     52  83  11  714
1477470798.711:     52  83  11  714
1477470798.711:     48  83  11  714
1477470798.711:     28  83  11  714
1477470798.712:     -3  83  11  714
1477470798.716:    -32  83  11  714
1477470798.717:    -44  83  11  714
1477470798.717:    -34  83  11  714
1477470798.717:    -14  83  11  714
1477470798.718:     -1  83  11  714
1477470798.718:      2  83  11  714
1477470798.718:      6  83  11  714
1477470798.719:     26  83  11  714
1477470798.730:     65  83  11  714
1477470798.730:    109  83  11  714
1477470798.730:    141  83  11  714
1477470798.730:    160  83  11  714
1477470798.731:    178  83  11  714
1477470798.731:    203  83  11  714
1477470798.731:    233  83  11  714
1477470798.731:    256  83  11  714
1477470798.731:    263  83  11  714
1477470798.731:    262  83  11  714
1477470798.732:    267  83  11  714
1477470798.732:    281  83  11  714
1477470798.732:    295  83  11  714
1477470798.732:    303  83  11  714
1477470798.732:    307  83  11  714
1477470798.732:    316  83  11  714
1477470798.733:    330  83  11  714
1477470798.733:    336  83  11  714
1477470798.733:    328  83  11  714
1477470798.733:    315  83  11  714
1477470798.733:    306  83  11  714
1477470798.734:    300  83  11  714
1477470798.734:    285  83  11  714
1477470798.734:    254  83  11  714
1477470798.734:    219  83  11  714
1477470798.734:    194  83  11  714
1477470798.734:    184  83  11  714
1477470798.735:    186  83  11  714
1477470798.735:    204  83  11  714
1477470798.735:    250  83  11  714
1477470798.738:    320  83  11  714
1477470798.740:    365  83  11  714
1477470798.742:    315  83  11  714
1477470798.742:    148  83  11  714
1477470798.744:    -80  83  11  714
1477470798.749:   -298  83  11  714
1477470798.761:   -513  83  11  714
1477470798.761:   -829  83  11  714
1477470798.761:  -1338  83  11  714
1477470798.761:  -1994  83  11  714
1477470798.761:  -2607  83  11  714
1477470798.762:  -2991  83  11  714
1477470798.762:  -3111  83  11  714
1477470798.762:  -3071  83  11  714
1477470798.764:  -2951  83  11  714
1477470798.766:  -2692  83  11  714
1477470798.767:  -2144  83  11  714
1477470798.768:  -1236  83  11  714
1477470798.771:    -84  83  11  714
1477470798.775:   1075  83  11  714
1477470798.780:   2037  83  11  714
1477470798.781:   2734  83  11  714
1477470798.781:   3199  83  11  714
1477470798.782:   3479  83  11  714
1477470798.783:   3573  83  11  714
1477470798.785:   3455  83  11  714
1477470798.787:   3125  83  11  714
1477470798.791:   2638  83  11  714
1477470798.798:   2097  83  11  714
1477470798.798:   1609  83  11  714
1477470798.799:   1241  83  11  714
1477470798.799:   1005  83  11  714
1477470798.802:    868  83  11  714
1477470798.804:    788  83  11  714
1477470798.805:    740  83  11  714
1477470798.806:    710  83  11  714
1477470798.808:    691  83  11  714
1477470798.808:    665  83  11  714
1477470798.810:    622  83  11  714
1477470798.814:    559  83  11  714
1477470798.817:    491  83  11  714
1477470798.818:    430  83  11  714
1477470798.821:    387  83  11  714
1477470798.824:    361  83  11  714
1477470798.838:    350  83  11  714
1477470798.838:    353  83  11  714
1477470798.838:    368  83  11  714
1477470798.838:    384  83  11  714
1477470798.841:    383  83  11  714
1477470798.841:    352  83  11  714
1477470798.845:    300  83  11  714
1477470798.846:    245  83  11  714
1477470798.849:    206  83  11  714
1477470798.849:    188  83  11  714
1477470798.860:    191  83  11  714
1477470798.861:    207  83  11  714
1477470798.861:    232  83  11  714
1477470798.861:    255  83  11  714
1477470798.861:    267  83  11  714
1477470798.865:    260  83  11  714
1477470798.866:    239  83  11  714
1477470798.866:    212  83  11  714
1477470798.868:    190  83  11  714
1477470798.868:    178  83  11  714
1477470798.870:    175  83  11  714
1477470798.871:    173  83  11  714
1477470798.883:    161  83  11  714
1477470798.883:    139  83  11  714
1477470798.884:    113  83  11  714
1477470798.884:     89  83  11  714
1477470798.885:     71  83  11  714
1477470798.885:     54  83  11  714
1477470798.885:     38  83  11  714
1477470798.886:     26  83  11  714
1477470798.886:     25  83  11  714
1477470798.890:     31  83  11  714
1477470798.901:     35  83  11  714
1477470798.902:     29  83  11  714
1477470798.903:     16  83  11  714
1477470798.903:      6  83  11  714
1477470798.904:      3  83  11  714
1477470798.905:     -1  83  11  714
1477470798.905:    -14  83  11  714
1477470798.908:    -35  83  11  714
1477470798.909:    -56  83  11  714
1477470798.910:    -75  83  11  714
1477470798.912:    -93  83  11  714
1477470798.912:   -110  83  11  714
1477470798.913:   -122  83  11  714
1477470798.917:   -127  83  11  714
1477470798.918:   -130  83  11  714
1477470798.918:   -142  83  11  714
1477470798.918:   -168  83  11  714
1477470798.919:   -200  83  11  714
1477470798.925:   -222  83  11  714
1477470798.927:   -229  83  11  714
1477470798.939:   -232  83  11  714
1477470798.940:   -249  83  11  714
1477470798.940:   -284  83  11  714
1477470798.941:   -323  83  11  714
1477470798.941:   -351  83  11  714
1477470798.942:   -365  83  11  714
1477470798.942:   -379  83  11  714
1477470798.942:   -400  83  11  714
1477470798.943:   -430  83  11  714
1477470798.944:   -461  83  11  714
1477470798.946:   -492  83  11  714
1477470798.947:   -529  83  11  714
1477470798.969:   -573  83  11  714
1477470798.969:   -619  83  11  714
1477470798.969:   -660  83  11  714
1477470798.970:   -695  83  11  714
1477470798.970:   -732  83  11  714
1477470798.970:   -775  83  11  714
1477470798.970:   -820  83  11  714
1477470798.970:   -862  83  11  714
1477470798.971:   -898  85  11  714
1477470798.971:   -928  85  11  714
1477470798.971:   -959  85  11  714
1477470798.976:   -994  85  11  714
1477470798.976:  -1037  85  11  714
1477470798.976:  -1082  85  11  714
1477470798.977:  -1121  85  11  714
1477470798.978:  -1150  85  11  714
1477470798.979:  -1172  85  11  714
1477470798.982:  -1197  85  11  714
1477470798.983:  -1226  85  11  714
1477470798.987:  -1249  85  11  714
1477470799.000:  -1259  85  11  714
1477470799.001:  -1257  85  11  714
1477470799.002:  -1254  85  11  714
1477470799.002:  -1259  85  11  714
1477470799.004:  -1265  85  11  714
1477470799.005:  -1264  85  11  714
1477470799.007:  -1252  85  11  714
1477470799.008:  -1236  85  11  714
1477470799.019:  -1224  85  11  714
1477470799.020:  -1217  85  11  714
1477470799.020:  -1211  85  11  714
1477470799.021:  -1195  85  11  714
1477470799.021:  -1161  85  11  714
1477470799.022:  -1111  85  11  714
1477470799.023:  -1054  85  11  714
1477470799.024:   -998  85  11  714
1477470799.024:   -944  85  11  714
1477470799.025:   -883  85  11  714
1477470799.026:   -808  85  11  714
1477470799.026:   -728  85  11  714
1477470799.028:   -650  85  11  714
1477470799.029:   -578  85  11  714
1477470799.033:   -505  85  11  714
1477470799.035:   -427  85  11  714
1477470799.041:   -348  85  11  714
1477470799.041:   -277  85  11  714
1477470799.043:   -213  85  11  714
1477470799.044:   -151  85  11  714
1477470799.045:    -86  85  11  714
1477470799.048:    -19  85  11  714
1477470799.049:     44  85  11  714
1477470799.052:    102  85  11  714
1477470799.054:    156  85  11  714
1477470799.055:    212  85  11  714
1477470799.059:    271  85  11  714
1477470799.060:    331  85  11  714
1477470799.060:    386  85  11  714
1477470799.061:    429  85  11  714
1477470799.066:    459  85  11  714
1477470799.067:    482  85  11  714
1477470799.081:    504  85  11  714
1477470799.082:    524  85  11  714
1477470799.083:    540  85  11  714
1477470799.084:    551  85  11  714
1477470799.084:    561  85  11  714
1477470799.085:    573  85  11  714
1477470799.086:    585  85  11  714
1477470799.087:    591  85  11  714
1477470799.088:    593  85  11  714
1477470799.089:    593  85  11  714
1477470799.090:    594  85  11  714
1477470799.092:    596  85  11  714
1477470799.094:    597  85  11  714
1477470799.094:    596  85  11  714
1477470799.096:    592  85  11  714
1477470799.097:    585  85  11  714
1477470799.099:    578  85  11  714
1477470799.102:    577  85  11  714
1477470799.102:    579  85  11  714
1477470799.108:    579  85  11  714
1477470799.128:    571  85  11  714
1477470799.129:    560  85  11  714
1477470799.140:    559  85  11  714
1477470799.141:    570  85  11  714
1477470799.153:    581  85  11  714
1477470799.153:    580  85  11  714
1477470799.154:    566  85  11  714
1477470799.155:    555  85  11  714
1477470799.155:    555  85  11  714
1477470799.156:    560  85  11  714
1477470799.157:    556  85  11  714
1477470799.158:    541  85  11  714
1477470799.159:    524  85  11  714
1477470799.159:    513  85  11  714
1477470799.160:    507  85  11  714
1477470799.160:    503  85  11  714
1477470799.173:    499  85  11  714
1477470799.174:    498  85  11  714
1477470799.174:    501  85  11  714
1477470799.175:    503  85  11  714
1477470799.176:    502  85  11  714
1477470799.177:    499  85  11  714
1477470799.177:    498  85  11  714
1477470799.178:    498  85  11  714
1477470799.179:    494  85  11  714
1477470799.179:    485  85  11  714
1477470799.180:    473  85  11  714
1477470799.181:    464  85  11  714
1477470799.182:    458  85  11  714
1477470799.183:    450  85  11  714
1477470799.195:    438  85  11  714
1477470799.196:    424  85  11  714
1477470799.196:    416  85  11  714
1477470799.197:    414  85  11  714
1477470799.198:    415  85  11  714
1477470799.199:    412  85  11  714
1477470799.200:    404  85  11  714
1477470799.201:    399  85  11  714
1477470799.205:    403  85  11  714
1477470799.206:    416  85  11  714
1477470799.207:    425  85  11  714
1477470799.207:    423  85  11  714
1477470799.208:    413  85  11  714
1477470799.208:    405  85  11  714
1477470799.208:    402  85  11  714
1477470799.208:    398  85  11  714
1477470799.209:    385  85  11  714
1477470799.209:    363  85  11  714
1477470799.209:    339  85  11  714
1477470799.209:    322  85  11  714
1477470799.210:    311  85  11  714
1477470799.210:    298  85  11  714
1477470799.210:    284  85  11  714
1477470799.211:    274  85  11  714
1477470799.212:    274  85  11  714
1477470799.213:    285  85  11  714
1477470799.217:    299  85  11  714
1477470799.219:    310  85  11  714
1477470799.233:    316  85  11  714
1477470799.233:    316  85  11  714
1477470799.233:    313  85  11  714
1477470799.233:    309  85  11  714
1477470799.233:    307  85  11  714
1477470799.236:    308  85  11  714
1477470799.237:    306  85  11  714
1477470799.238:    302  85  11  714
1477470799.238:    298  85  11  714
1477470799.240:    305  85  11  714
1477470799.277:    323  85  11  714
1477470799.356:    343  85  11  714
1477470799.356:    353  85  11  714
1477470799.357:    350  85  11  714
1477470799.357:    344  85  11  714
1477470799.357:    343  85  11  714
1477470799.357:    349  85  11  714
1477470799.357:    355  85  11  714
1477470799.370:    356  85  11  714
1477470799.370:    354  85  11  714
1477470799.371:    355  85  11  714
1477470799.371:    359  85  11  714
1477470799.371:    361  85  11  714
1477470799.371:    358  85  11  714
1477470799.371:    353  85  11  714
1477470799.371:    351  85  11  714
1477470799.371:    358  85  11  714
1477470799.371:    372  85  11  714
1477470799.372:    384  85  11  714
1477470799.372:    387  85  11  714
1477470799.372:    382  85  11  714
1477470799.372:    376  85  11  714
1477470799.372:    379  85  11  714
1477470799.372:    390  85  11  714
1477470799.372:    403  85  11  714
1477470799.373:    409  85  11  714
1477470799.373:    408  85  11  714
1477470799.373:    404  85  11  714
1477470799.373:    405  85  11  714
1477470799.373:    411  85  11  714
1477470799.373:    420  85  11  714
1477470799.373:    426  85  11  714
1477470799.374:    424  85  11  714
1477470799.374:    412  85  11  714
1477470799.374:    401  85  11  714
1477470799.374:    399  85  11  714
1477470799.374:    407  85  11  714
1477470799.374:    414  85  11  714
1477470799.375:    411  85  11  714
1477470799.375:    401  85  11  714
1477470799.375:    395  85  11  714
1477470799.375:    399  85  11  714
1477470799.375:    405  85  11  714
1477470799.375:    402  85  11  714
1477470799.376:    390  85  11  714
1477470799.376:    379  85  11  714
1477470799.376:    380  85  11  714
1477470799.376:    392  85  11  714
1477470799.376:    409  85  11  714
1477470799.376:    425  85  11  714
1477470799.377:    436  85  11  714
1477470799.377:    442  85  11  714
1477470799.377:    446  85  11  714
1477470799.377:    454  85  11  714
1477470799.377:    470  85  11  714
1477470799.377:    492  85  11  714
1477470799.377:    509  85  11  714
1477470799.378:    512  85  11  714
1477470799.378:    506  85  11  714
1477470799.378:    499  85  11  714
1477470799.378:    494  85  11  714
1477470799.378:    486  85  11  714
1477470799.379:    473  85  11  714
1477470799.379:    458  85  11  714
1477470799.379:    445  85  11  714
1477470799.379:    424  85  11  714
1477470799.379:    386  85  11  714
1477470799.380:    339  85  11  714
1477470799.380:    301  85  11  714
1477470799.380:    283  85  11  714
1477470799.380:    272  85  11  714
1477470799.387:    247  85  11  714
1477470799.387:    203  85  11  714
1477470799.388:    161  85  11  714
1477470799.388:    142  85  11  714
1477470799.388:    142  85  11  714
1477470799.391:    142  85  11  714
1477470799.391:    124  85  11  714
1477470799.402:     99  85  11  714
1477470799.403:     89  85  11  714
1477470799.403:    104  85  11  714
1477470799.403:    133  85  11  714
1477470799.403:    151  85  11  714
1477470799.403:    146  85  11  714
1477470799.406:    130  85  11  714
1477470799.406:    124  85  11  714
1477470799.407:    144  85  11  714
1477470799.408:    183  85  11  714
1477470799.411:    217  85  11  714
1477470799.412:    232  85  11  714
1477470799.415:    229  85  11  714
1477470799.416:    229  85  11  714
1477470799.426:    246  85  11  714
1477470799.427:    280  85  11  714
1477470799.427:    316  85  11  714
1477470799.427:    337  85  11  714
1477470799.429:    341  85  11  714
1477470799.430:    338  85  11  714
1477470799.432:    343  85  11  714
1477470799.432:    362  85  11  714
1477470799.436:    388  85  11  714
1477470799.437:    408  85  11  714
1477470799.450:    414  85  11  714
1477470799.451:    409  85  11  714
1477470799.451:    401  85  11  714
1477470799.451:    391  85  11  714
1477470799.451:    381  85  11  714
1477470799.451:    366  85  11  714
1477470799.453:    345  85  11  714
1477470799.453:    324  85  11  714
1477470799.456:    307  85  11  714
1477470799.456:    296  85  11  714
1477470799.457:    285  85  11  714
1477470799.461:    273  85  11  714
1477470799.472:    275  85  11  714
1477470799.472:    310  85  11  714
1477470799.472:    380  85  11  714
1477470799.473:    451  85  11  714
1477470799.473:    455  85  11  714
1477470799.473:    346  85  11  714
1477470799.473:    147  85  11  714
1477470799.475:    -73  85  11  714
1477470799.481:   -275  85  11  714
1477470799.482:   -521  85  11  714
1477470799.493:   -923  85  11  714
1477470799.493:  -1520  85  11  714
1477470799.493:  -2190  85  11  714
1477470799.493:  -2723  85  11  714
1477470799.493:  -2995  85  11  714
1477470799.496:  -3052  85  11  714
1477470799.497:  -3005  85  11  714
1477470799.498:  -2867  85  11  714
1477470799.498:  -2503  85  11  714
1477470799.501:  -1775  85  11  714
1477470799.512:   -710  85  11  714
1477470799.512:    484  85  11  714
1477470799.512:   1566  85  11  714
1477470799.512:   2410  85  11  714
1477470799.514:   3023  85  11  714
1477470799.515:   3444  85  11  714
1477470799.520:   3673  85  11  714
1477470799.521:   3675  85  11  714
1477470799.530:   3445  85  11  714
1477470799.531:   3033  85  11  714
1477470799.533:   2526  85  11  714
1477470799.533:   2018  85  11  714
1477470799.534:   1582  85  11  714
1477470799.538:   1266  85  11  714
1477470799.549:   1071  85  11  714
1477470799.549:    968  85  11  714
1477470799.549:    917  85  11  714
1477470799.549:    886  85  11  714
1477470799.550:    863  85  11  714
1477470799.550:    838  85  11  714
1477470799.550:    796  85  11  714
1477470799.553:    730  85  11  714
1477470799.553:    647  85  11  714
1477470799.555:    562  85  11  714
1477470799.557:    492  85  11  714
1477470799.558:    444  85  11  714
1477470799.567:    422  85  11  714
1477470799.567:    428  85  11  714
1477470799.568:    456  85  11  714
1477470799.568:    492  85  11  714
1477470799.568:    511  85  11  714
1477470799.568:    500  85  11  714
1477470799.574:    460  85  11  714
1477470799.579:    405  85  11  714
1477470799.579:    351  85  11  714
1477470799.584:    314  85  11  714
1477470799.584:    299  85  11  714
1477470799.584:    303  85  11  714
1477470799.587:    321  85  11  714
1477470799.587:    342  85  11  714
1477470799.587:    354  85  11  714
1477470799.588:    351  85  11  714
1477470799.590:    330  85  11  714
1477470799.591:    296  85  11  714
1477470799.592:    264  85  11  714
1477470799.593:    243  85  11  714
1477470799.609:    234  85  11  714
1477470799.609:    232  85  11  714
1477470799.609:    229  85  11  714
1477470799.609:    223  85  11  714
1477470799.609:    216  85  11  714
1477470799.609:    209  85  11  714
1477470799.609:    204  85  11  714
1477470799.613:    198  85  11  714
1477470799.613:    192  85  11  714
1477470799.615:    187  85  11  714
1477470799.616:    185  85  11  714
1477470799.617:    185  85  11  714
1477470799.618:    184  85  11  714
1477470799.619:    176  85  11  714
1477470799.623:    160  85  11  714
1477470799.624:    137  85  11  714
1477470799.632:    113  85  11  714
1477470799.632:     90  85  11  714
1477470799.634:     71  85  11  714
1477470799.635:     57  85  11  714
1477470799.636:     47  85  11  714
1477470799.638:     39  85  11  714
1477470799.638:     29  85  11  714
1477470799.641:     16  85  11  714
1477470799.642:      1  85  11  714
1477470799.642:    -11  85  11  714
1477470799.644:    -20  85  11  714
1477470799.645:    -28  85  11  714
1477470799.647:    -43  85  11  714
1477470799.652:    -67  85  11  714
1477470799.652:    -96  85  11  714
1477470799.653:   -119  85  11  714
1477470799.655:   -130  85  11  714
1477470799.656:   -138  85  11  714
1477470799.660:   -156  85  11  714
1477470799.661:   -191  85  11  714
1477470799.662:   -236  85  11  714
1477470799.663:   -276  85  11  714
1477470799.680:   -305  85  11  714
1477470799.680:   -325  85  11  714
1477470799.680:   -345  85  11  714
1477470799.680:   -367  85  11  714
1477470799.680:   -389  85  11  714
1477470799.680:   -408  85  11  714
1477470799.681:   -424  85  11  714
1477470799.682:   -441  85  11  714
1477470799.682:   -467  84  11  715
1477470799.684:   -504  84  11  715
1477470799.685:   -550  84  11  715
1477470799.690:   -597  84  11  715
1477470799.691:   -640  84  11  715
1477470799.692:   -681  84  11  715
1477470799.695:   -727  84  11  715
1477470799.696:   -781  84  11  715
1477470799.698:   -833  84  11  715
1477470799.699:   -869  84  11  715
1477470799.702:   -888  84  11  715
1477470799.704:   -900  84  11  715
1477470799.705:   -920  84  11  715
1477470799.709:   -950  84  11  715
1477470799.710:   -979  84  11  715
1477470799.711:   -995  84  11  715
1477470799.712:  -1001  84  11  715
1477470799.718:  -1009  84  11  715
1477470799.733:  -1030  84  11  715
1477470799.733:  -1058  84  11  715
1477470799.733:  -1079  84  11  715
1477470799.734:  -1083  84  11  715
1477470799.734:  -1075  84  11  715
1477470799.735:  -1064  84  11  715
1477470799.735:  -1056  84  11  715
1477470799.735:  -1049  84  11  715
1477470799.764:  -1034  84  11  715
1477470799.765:  -1007  84  11  715
1477470799.773:   -973  84  11  715
1477470799.773:   -939  84  11  715
1477470799.774:   -907  84  11  715
1477470799.774:   -875  84  11  715
1477470799.775:   -838  84  11  715
1477470799.776:   -795  84  11  715
1477470799.777:   -745  84  11  715
1477470799.778:   -689  84  11  715
1477470799.779:   -627  84  11  715
1477470799.779:   -560  84  11  715
1477470799.789:   -490  84  11  715
1477470799.789:   -421  84  11  715
1477470799.789:   -352  84  11  715
1477470799.790:   -285  84  11  715
1477470799.790:   -216  84  11  715
1477470799.790:   -143  84  11  715
1477470799.791:    -64  84  11  715
1477470799.791:     14  84  11  715
1477470799.791:     85  84  11  715
1477470799.791:    146  84  11  715
1477470799.791:    202  84  11  715
1477470799.792:    262  84  11  715
1477470799.792:    328  84  11  715
1477470799.792:    391  84  11  715
1477470799.792:    444  84  11  715
1477470799.793:    485  84  11  715
1477470799.793:    520  84  11  715
1477470799.793:    556  84  11  715
1477470799.821:    591  84  11  715
1477470799.824:    624  84  11  715
1477470799.827:    654  84  11  715
1477470799.832:    682  84  11  715
1477470799.844:    706  84  11  715
1477470799.845:    723  84  11  715
1477470799.846:    728  84  11  715
1477470799.847:    726  84  11  715
1477470799.847:    725  84  11  715
1477470799.847:    730  84  11  715
1477470799.847:    738  84  11  715
1477470799.848:    740  84  11  715
1477470799.848:    736  84  11  715
1477470799.848:    728  84  11  715
1477470799.848:    722  84  11  715
1477470799.849:    722  84  11  715
1477470799.849:    723  84  11  715
1477470799.849:    721  84  11  715
1477470799.849:    714  84  11  715
1477470799.849:    706  84  11  715
1477470799.850:    701  84  11  715
1477470799.850:    696  84  11  715
1477470799.850:    688  84  11  715
1477470799.850:    674  84  11  715
1477470799.851:    658  84  11  715
1477470799.851:    645  84  11  715
1477470799.861:    636  84  11  715
1477470799.862:    625  84  11  715
1477470799.862:    608  84  11  715
1477470799.862:    591  84  11  715
1477470799.862:    584  84  11  715
1477470799.862:    591  84  11  715
1477470799.862:    604  84  11  715
1477470799.865:    613  84  11  715
1477470799.866:    615  84  11  715
1477470799.871:    614  84  11  715
1477470799.882:    613  84  11  715
1477470799.882:    613  84  11  715
1477470799.883:    610  84  11  715
1477470799.883:    603  84  11  715
1477470799.884:    595  84  11  715
1477470799.885:    583  84  11  715
1477470799.885:    566  84  11  715
1477470799.885:    547  84  11  715
1477470799.888:    536  84  11  715
1477470799.888:    537  84  11  715
1477470799.900:    544  84  11  715
1477470799.901:    545  84  11  715
1477470799.902:    535  84  11  715
1477470799.902:    521  84  11  715
1477470799.903:    516  84  11  715
1477470799.903:    523  84  11  715
1477470799.904:    534  84  11  715
1477470799.905:    537  84  11  715
1477470799.905:    528  84  11  715
1477470799.906:    512  84  11  715
1477470799.908:    497  84  11  715
1477470799.908:    483  84  11  715
1477470799.914:    468  84  11  715
1477470799.914:    453  84  11  715
1477470799.914:    441  84  11  715
1477470799.918:    434  84  11  715
1477470799.919:    430  84  11  715
1477470799.919:    426  84  11  715
1477470799.919:    420  84  11  715
1477470799.919:    418  84  11  715
1477470799.921:    427  84  11  715
1477470799.923:    446  84  11  715
1477470799.928:    461  84  11  715
1477470799.928:    463  84  11  715
1477470799.953:    452  84  11  715
1477470799.954:    436  84  11  715
1477470799.954:    425  84  11  715
1477470799.954:    419  84  11  715
1477470799.954:    411  84  11  715
1477470799.954:    396  84  11  715
1477470799.954:    378  84  11  715
1477470799.955:    364  84  11  715
1477470799.955:    357  84  11  715
1477470799.955:    356  84  11  715
1477470799.955:    359  84  11  715
1477470799.955:    360  84  11  715
1477470799.956:    357  84  11  715
1477470799.957:    353  84  11  715
1477470799.957:    351  84  11  715
1477470799.959:    355  84  11  715
1477470799.960:    360  84  11  715
1477470799.962:    360  84  11  715
1477470799.969:    356  84  11  715
1477470799.969:    360  84  11  715
1477470799.981:    376  84  11  715
1477470799.982:    400  84  11  715
1477470799.982:    415  84  11  715
1477470799.982:    412  84  11  715
1477470799.982:    400  84  11  715
1477470799.982:    390  84  11  715
1477470799.983:    389  84  11  715
1477470800.051:    386  84  11  715
1477470800.058:    376  84  11  715
1477470800.058:    359  84  11  715
1477470800.059:    349  84  11  715
1477470800.060:    352  84  11  715
1477470800.060:    365  84  11  715
1477470800.060:    378  84  11  715
1477470800.060:    386  84  11  715
1477470800.061:    394  84  11  715
1477470800.061:    405  84  11  715
1477470800.061:    413  84  11  715
1477470800.061:    414  84  11  715
1477470800.061:    405  84  11  715
1477470800.061:    393  84  11  715
1477470800.062:    386  84  11  715
1477470800.062:    388  84  11  715
1477470800.062:    393  84  11  715
1477470800.062:    395  84  11  715
1477470800.062:    394  84  11  715
1477470800.062:    400  84  11  715
1477470800.062:    420  84  11  715
1477470800.063:    446  84  11  715
1477470800.063:    465  84  11  715
1477470800.063:    469  84  11  715
1477470800.063:    465  84  11  715
1477470800.063:    467  84  11  715
1477470800.063:    478  84  11  715
1477470800.063:    490  84  11  715
1477470800.064:    494  84  11  715
1477470800.064:    489  84  11  715
1477470800.064:    485  84  11  715
1477470800.064:    483  84  11  715
1477470800.064:    480  84  11  715
1477470800.064:    472  84  11  715
1477470800.064:    458  84  11  715
1477470800.065:    440  84  11  715
1477470800.065:    416  84  11  715
1477470800.070:    384  84  11  715
1477470800.070:    348  84  11  715
1477470800.073:    316  84  11  715
1477470800.074:    295  84  11  715
1477470800.075:    278  84  11  715
1477470800.077:    255  84  11  715
1477470800.077:    221  84  11  715
1477470800.079:    188  84  11  715
1477470800.079:    171  84  11  715
1477470800.079:    177  84  11  715
1477470800.082:    189  84  11  715
1477470800.082:    186  84  11  715
1477470800.082:    161  84  11  715
1477470800.083:    129  84  11  715
1477470800.085:    114  84  11  715
1477470800.086:    121  84  11  715
1477470800.087:    132  84  11  715
1477470800.090:    131  84  11  715
1477470800.116:    117  84  11  715
1477470800.117:    111  84  11  715
1477470800.118:    129  84  11  715
1477470800.119:    168  84  11  715
1477470800.119:    205  84  11  715
1477470800.120:    225  84  11  715
1477470800.121:    236  84  11  715
1477470800.121:    255  84  11  715
1477470800.124:    290  84  11  715
1477470800.124:    328  84  11  715
1477470800.124:    350  84  11  715
1477470800.124:    350  84  11  715
1477470800.125:    344  84  11  715
1477470800.125:    351  84  11  715
1477470800.136:    371  84  11  715
1477470800.138:    389  84  11  715
1477470800.139:    391  84  11  715
1477470800.139:    382  84  11  715
1477470800.139:    378  84  11  715
1477470800.140:    389  84  11  715
1477470800.140:    402  84  11  715
1477470800.140:    405  84  11  715
1477470800.140:    399  84  11  715
1477470800.141:    395  84  11  715
1477470800.141:    398  84  11  715
1477470800.141:    396  84  11  715
1477470800.143:    375  84  11  715
1477470800.144:    337  84  11  715
1477470800.148:    299  84  11  715
1477470800.149:    277  84  11  715
1477470800.150:    266  84  11  715
1477470800.151:    256  84  11  715
1477470800.152:    252  84  11  715
1477470800.155:    273  84  11  715
1477470800.207:    327  84  11  715
1477470800.209:    389  84  11  715
1477470800.209:    398  84  11  715
1477470800.210:    308  84  11  715
1477470800.211:    140  84  11  715
1477470800.211:    -47  84  11  715
1477470800.212:   -230  84  11  715
1477470800.213:   -479  84  11  715
1477470800.214:   -897  84  11  715
1477470800.214:  -1499  84  11  715
1477470800.215:  -2159  84  11  715
1477470800.216:  -2686  84  11  715
1477470800.217:  -2980  84  11  715
1477470800.217:  -3086  84  11  715
1477470800.217:  -3090  84  11  715
1477470800.218:  -2975  84  11  715
1477470800.218:  -2608  84  11  715
1477470800.218:  -1877  84  11  715
1477470800.218:   -836  84  11  715
1477470800.218:    301  84  11  715
1477470800.219:   1312  84  11  715
1477470800.219:   2096  84  11  715
1477470800.219:   2674  84  11  715
1477470800.219:   3080  84  11  715
1477470800.219:   3295  84  11  715
1477470800.220:   3268  84  11  715
1477470800.220:   3005  84  11  715
1477470800.220:   2586  84  11  715
1477470800.220:   2123  84  11  715
1477470800.222:   1698  84  11  715
1477470800.222:   1345  84  11  715
1477470800.222:   1081  84  11  715
1477470800.224:    913  84  11  715
1477470800.228:    836  84  11  715
1477470800.229:    817  84  11  715
1477470800.229:    813  84  11  715
1477470800.230:    800  84  11  715
1477470800.230:    776  84  11  715
1477470800.234:    742  84  11  715
1477470800.235:    693  84  11  715
1477470800.267:    624  84  11  715
1477470800.269:    542  84  11  715
1477470800.270:    475  84  11  715
1477470800.271:    442  84  11  715
1477470800.271:    439  84  11  715
1477470800.272:    445  84  11  715
1477470800.273:    446  84  11  715
1477470800.273:    437  84  11  715
1477470800.274:    417  84  11  715
1477470800.275:    381  84  11  715
1477470800.275:    330  84  11  715
1477470800.276:    276  84  11  715
1477470800.276:    236  84  11  715
1477470800.277:    221  84  11  715
1477470800.278:    226  84  11  715
1477470800.279:    240  84  11  715
1477470800.293:    257  84  11  715
1477470800.294:    274  84  11  715
1477470800.294:    283  84  11  715
1477470800.295:    275  84  11  715
1477470800.296:    246  84  11  715
1477470800.296:    207  84  11  715
1477470800.297:    171  84  11  715
1477470800.298:    149  84  11  715
1477470800.312:    141  84  11  715
1477470800.313:    146  84  11  715
1477470800.314:    158  84  11  715
1477470800.316:    171  84  11  715
1477470800.317:    177  84  11  715
1477470800.318:    169  84  11  715
1477470800.319:    152  84  11  715
1477470800.321:    136  84  11  715
1477470800.332:    127  84  11  715
1477470800.332:    128  84  11  715
1477470800.332:    132  84  11  715
1477470800.333:    134  84  11  715
1477470800.333:    130  84  11  715
1477470800.333:    121  84  11  715
1477470800.333:    110  84  11  715
1477470800.333:    101  84  11  715
1477470800.334:     96  84  11  715
1477470800.334:     90  84  11  715
1477470800.334:     80  84  11  715
1477470800.334:     59  84  11  715
1477470800.335:     33  84  11  715
1477470800.335:      7  84  11  715
1477470800.335:    -12  84  11  715
1477470800.335:    -24  84  11  715
1477470800.335:    -33  84  11  715
1477470800.336:    -43  84  11  715
1477470800.336:    -58  84  11  715
1477470800.336:    -74  84  11  715
1477470800.337:    -90  84  11  715
1477470800.345:   -102  84  11  715
1477470800.349:   -113  84  11  715
1477470800.349:   -125  84  11  715
1477470800.349:   -141  84  11  715
1477470800.351:   -162  84  11  715
1477470800.351:   -188  84  11  715
1477470800.352:   -214  84  11  715
1477470800.353:   -237  84  11  715
1477470800.358:   -255  84  11  715
1477470800.359:   -270  84  11  715
1477470800.360:   -290  84  11  715
1477470800.362:   -320  84  11  715
1477470800.364:   -357  84  11  715
1477470800.368:   -393  84  11  715
1477470800.369:   -421  84  11  715
1477470800.372:   -441  84  11  715
1477470800.372:   -462  84  11  715
1477470800.375:   -490  84  11  715
1477470800.376:   -524  84  11  715
1477470800.393:   -557  84  11  715
1477470800.394:   -586  84  11  715
1477470800.395:   -613  84  11  715
1477470800.416:   -639  84  11  715
1477470800.417:   -669  84  11  715
1477470800.418:   -705  84  11  715
1477470800.419:   -747  84  11  715
1477470800.419:   -789  84  11  715
1477470800.420:   -822  84  11  715
1477470800.421:   -844  84  11  715
1477470800.421:   -860  84  11  715
1477470800.422:   -883  84  11  715
1477470800.432:   -922  84  11  715
1477470800.433:   -970  84  11  715
1477470800.434:  -1010  84  11  715
1477470800.435:  -1034  84  11  715
1477470800.435:  -1045  84  11  715
1477470800.436:  -1058  84  11  715
1477470800.437:  -1082  84  11  715
1477470800.437:  -1111  85  11  714
1477470800.437:  -1126  85  11  714
1477470800.437:  -1123  85  11  714
1477470800.437:  -1110  85  11  714
1477470800.438:  -1105  85  11  714
1477470800.438:  -1112  85  11  714
1477470800.438:  -1118  85  11  714
1477470800.438:  -1106  85  11  714
1477470800.438:  -1077  85  11  714
1477470800.439:  -1044  85  11  714
1477470800.440:  -1013  85  11  714
1477470800.440:   -977  85  11  714
1477470800.442:   -922  85  11  714
1477470800.451:   -850  85  11  714
1477470800.452:   -774  85  11  714
1477470800.452:   -704  85  11  714
1477470800.452:   -636  85  11  714
1477470800.454:   -558  85  11  714
1477470800.455:   -471  85  11  714
1477470800.455:   -385  85  11  714
1477470800.455:   -312  85  11  714
1477470800.458:   -251  85  11  714
1477470800.458:   -191  85  11  714
1477470800.459:   -122  85  11  714
1477470800.462:    -49  85  11  714
1477470800.464:     17  85  11  714
1477470800.465:     72  85  11  714
1477470800.469:    122  85  11  714
1477470800.469:    175  85  11  714
1477470800.474:    235  85  11  714
1477470800.475:    295  85  11  714
1477470800.499:    345  85  11  714
1477470800.499:    379  85  11  714
1477470800.500:    403  85  11  714
1477470800.501:    426  85  11  714
1477470800.502:    455  85  11  714
1477470800.503:    487  85  11  714
1477470800.503:    516  85  11  714
1477470800.504:    538  85  11  714
1477470800.505:    553  85  11  714
1477470800.505:    567  85  11  714
1477470800.507:    580  85  11  714
1477470800.508:    591  85  11  714
1477470800.509:    597  85  11  714
1477470800.509:    595  85  11  714
1477470800.522:    588  85  11  714
1477470800.522:    577  85  11  714
1477470800.522:    562  85  11  714
1477470800.522:    546  85  11  714
1477470800.522:    532  85  11  714
1477470800.523:    522  85  11  714
1477470800.523:    516  85  11  714
1477470800.523:    510  85  11  714
1477470800.523:    502  85  11  714
1477470800.523:    498  85  11  714
1477470800.523:    503  85  11  714
1477470800.523:    512  85  11  714
1477470800.528:    518  85  11  714
1477470800.528:    513  85  11  714
1477470800.530:    504  85  11  714
1477470800.531:    504  85  11  714
1477470800.534:    515  85  11  714
1477470800.536:    529  85  11  714
1477470800.544:    533  85  11  714
1477470800.545:    525  85  11  714
1477470800.545:    513  85  11  714
1477470800.545:    505  85  11  714
1477470800.545:    501  85  11  714
1477470800.547:    495  85  11  714
1477470800.550:    485  85  11  714
1477470800.551:    475  85  11  714
1477470800.555:    469  85  11  714
1477470800.555:    464  85  11  714
1477470800.565:    459  85  11  714
1477470800.566:    454  85  11  714
1477470800.566:    454  85  11  714
1477470800.566:    457  85  11  714
1477470800.566:    458  85  11  714
1477470800.569:    454  85  11  714
1477470800.569:    446  85  11  714
1477470800.571:    441  85  11  714
1477470800.572:    439  85  11  714
1477470800.574:    438  85  11  714
1477470800.579:    435  85  11  714
1477470800.582:    429  85  11  714
1477470800.606:    420  85  11  714
1477470800.607:    407  85  11  714
1477470800.607:    386  85  11  714
1477470800.608:    363  85  11  714
1477470800.608:    346  85  11  714
1477470800.608:    339  85  11  714
1477470800.609:    339  85  11  714
1477470800.609:    334  85  11  714
1477470800.609:    322  85  11  714
1477470800.609:    312  85  11  714
1477470800.609:    312  85  11  714
1477470800.610:    321  85  11  714
1477470800.610:    327  85  11  714
1477470800.610:    323  85  11  714
1477470800.610:    315  85  11  714
1477470800.610:    312  85  11  714
1477470800.614:    317  85  11  714
1477470800.614:    320  85  11  714
1477470800.616:    311  85  11  714
1477470800.617:    291  85  11  714
1477470800.624:    271  85  11  714
1477470800.624:    255  85  11  714
1477470800.624:    239  85  11  714
1477470800.626:    217  85  11  714
1477470800.643:    194  85  11  714
1477470800.644:    176  85  11  714
1477470800.645:    170  85  11  714
1477470800.646:    172  85  11  714
1477470800.646:    172  85  11  714
1477470800.648:    170  85  11  714
1477470800.649:    168  85  11  714
1477470800.650:    169  85  11  714
1477470800.651:    173  85  11  714
1477470800.651:    176  85  11  714
1477470800.662:    177  85  11  714
1477470800.663:    179  85  11  714
1477470800.663:    182  85  11  714
1477470800.664:    186  85  11  714
1477470800.665:    190  85  11  714
1477470800.666:    191  85  11  714
1477470800.667:    191  85  11  714
1477470800.667:    190  85  11  714
1477470800.668:    190  85  11  714
1477470800.669:    190  85  11  714
1477470800.679:    190  85  11  714
1477470800.680:    192  85  11  714
1477470800.682:    194  85  11  714
1477470800.683:    197  85  11  714
1477470800.684:    199  85  11  714
1477470800.685:    200  85  11  714
1477470800.685:    203  85  11  714
1477470800.686:    209  85  11  714
1477470800.687:    215  85  11  714
1477470800.688:    215  85  11  714
1477470800.697:    212  85  11  714
1477470800.698:    212  85  11  714
1477470800.698:    219  85  11  714
1477470800.698:    235  85  11  714
1477470800.698:    249  85  11  714
1477470800.698:    254  85  11  714
1477470800.702:    254  85  11  714
1477470800.702:    256  85  11  714
1477470800.704:    271  85  11  714
1477470800.705:    294  85  11  714
1477470800.706:    313  85  11  714
1477470800.710:    321  85  11  714
1477470800.711:    317  85  11  714
1477470800.713:    314  85  11  714
1477470800.716:    319  85  11  714
1477470800.723:    328  85  11  714
1477470800.723:    333  85  11  714
1477470800.723:    333  85  11  714
1477470800.726:    330  85  11  714
1477470800.727:    330  85  11  714
1477470800.730:    327  85  11  714
1477470800.731:    318  85  11  714
1477470800.733:    303  85  11  714
1477470800.734:    286  85  11  714
1477470800.750:    269  85  11  714
1477470800.842:    248  85  11  714
1477470800.847:    221  85  11  714
1477470800.847:    193  85  11  714
1477470800.847:    170  85  11  714
1477470800.848:    153  85  11  714
1477470800.848:    134  85  11  714
1477470800.848:    106  85  11  714
1477470800.849:     77  85  11  714
1477470800.849:     59  85  11  714
1477470800.849:     60  85  11  714
1477470800.849:     71  85  11  714
1477470800.849:     72  85  11  714
1477470800.850:     49  85  11  714
1477470800.850:     14  85  11  714
1477470800.850:     -8  85  11  714
1477470800.850:     -5  85  11  714
1477470800.850:     12  85  11  714
1477470800.851:     16  85  11  714
1477470800.851:     -1  85  11  714
1477470800.851:    -17  85  11  714
1477470800.851:     -6  85  11  714
1477470800.851:     31  85  11  714
1477470800.852:     71  85  11  714
1477470800.852:     92  85  11  714
1477470800.852:     99  85  11  714
1477470800.852:    112  85  11  714
1477470800.852:    140  85  11  714
1477470800.853:    170  85  11  714
1477470800.853:    186  85  11  714
1477470800.853:    188  85  11  714
1477470800.854:    188  85  11  714
1477470800.854:    197  85  11  714
1477470800.854:    214  85  11  714
1477470800.854:    234  85  11  714
1477470800.854:    251  85  11  714
1477470800.855:    262  85  11  714
1477470800.855:    265  85  11  714
1477470800.896:    265  85  11  714
1477470800.897:    269  85  11  714
1477470800.897:    277  85  11  714
1477470800.897:    284  85  11  714
1477470800.898:    281  85  11  714
1477470800.898:    267  85  11  714
1477470800.898:    244  85  11  714
1477470800.899:    218  85  11  714
1477470800.899:    195  85  11  714
1477470800.899:    178  85  11  714
1477470800.900:    170  85  11  714
1477470800.901:    165  85  11  714
1477470800.901:    158  85  11  714
1477470800.901:    155  85  11  714
1477470800.901:    174  85  11  714
1477470800.901:    226  85  11  714
1477470800.902:    291  85  11  714
1477470800.902:    309  85  11  714
1477470800.903:    224  85  11  714
1477470800.903:     41  85  11  714
1477470800.903:   -175  85  11  714
1477470800.904:   -380  85  11  714
1477470800.904:   -619  85  11  714
1477470800.904:   -999  85  11  714
1477470800.905:  -1574  85  11  714
1477470800.905:  -2249  85  11  714
1477470800.905:  -2830  85  11  714
1477470800.905:  -3176  85  11  714
1477470800.905:  -3294  85  11  714
1477470800.906:  -3272  85  11  714
1477470800.906:  -3140  85  11  714
1477470800.907:  -2801  85  11  714
1477470800.907:  -2135  85  11  714
1477470800.907:  -1140  85  11  714
1477470800.907:     25  85  11  714
1477470800.908:   1131  85  11  714
1477470800.908:   2017  85  11  714
1477470800.908:   2639  85  11  714
1477470800.908:   3030  85  11  714
1477470800.909:   3223  85  11  714
1477470800.909:   3220  85  11  714
1477470800.909:   3011  85  11  714
1477470800.909:   2617  85  11  714
1477470800.909:   2112  85  11  714
1477470800.910:   1608  85  11  714
1477470800.910:   1201  85  11  714
1477470800.910:    932  85  11  714
1477470800.912:    787  85  11  714
1477470800.912:    725  85  11  714
1477470800.914:    712  85  11  714
1477470800.914:    729  85  11  714
1477470800.931:    756  85  11  714
1477470800.932:    765  85  11  714
1477470800.932:    733  85  11  714
1477470800.933:    660  85  11  714
1477470800.933:    566  85  11  714
1477470800.937:    473  85  11  714
1477470800.939:    398  85  11  714
1477470800.941:    345  85  11  714
1477470800.942:    314  85  11  714
1477470800.942:    304  85  11  714
1477470800.942:    315  85  11  714
1477470800.943:    340  85  11  714
1477470800.943:    360  85  11  714
1477470800.943:    358  85  11  714
1477470800.944:    326  85  11  714
1477470800.957:    273  85  11  714
1477470800.958:    218  85  11  714
1477470800.959:    178  85  11  714
1477470800.959:    162  85  11  714
1477470800.960:    166  85  11  714
1477470800.961:    183  85  11  714
1477470800.961:    201  85  11  714
1477470800.962:    211  85  11  714
1477470800.963:    206  85  11  714
1477470800.963:    186  85  11  714
1477470800.964:    160  85  11  714
1477470800.965:    139  85  11  714
1477470800.965:    131  85  11  714
1477470800.967:    132  85  11  714
1477470800.993:    134  85  11  714
1477470800.993:    130  85  11  714
1477470800.994:    121  85  11  714
1477470800.994:    112  85  11  714
1477470800.994:    102  85  11  714
1477470800.995:     91  85  11  714
1477470800.995:     77  85  11  714
1477470800.996:     62  85  11  714
1477470800.996:     48  85  11  714
1477470800.996:     38  85  11  714
1477470800.997:     30  85  11  714
1477470801.003:     22  85  11  714
1477470801.004:     15  85  11  714
1477470801.004:      7  85  11  714
1477470801.004:     -2  85  11  714
1477470801.005:    -12  85  11  714
1477470801.005:    -23  85  11  714
1477470801.006:    -38  85  11  714
1477470801.007:    -57  85  11  714
1477470801.008:    -79  85  11  714
1477470801.020:    -99  85  11  714
1477470801.021:   -114  85  11  714
1477470801.021:   -125  85  11  714
1477470801.022:   -140  85  11  714
1477470801.022:   -158  85  11  714
1477470801.023:   -175  85  11  714
1477470801.024:   -179  85  11  714
1477470801.024:   -175  85  11  714
1477470801.024:   -175  85  11  714
1477470801.024:   -189  85  11  714
1477470801.026:   -212  85  11  714
1477470801.027:   -230  85  11  714
1477470801.031:   -239  85  11  714
1477470801.031:   -250  85  11  714
1477470801.063:   -277  85  11  714
1477470801.064:   -318  85  11  714
1477470801.064:   -358  85  11  714
1477470801.065:   -388  85  11  714
1477470801.066:   -414  85  11  714
1477470801.067:   -451  85  11  714
1477470801.068:   -499  85  11  714
1477470801.068:   -544  85  11  714
1477470801.068:   -575  85  11  714
1477470801.068:   -595  85  11  714
1477470801.069:   -613  85  11  714
1477470801.069:   -637  85  11  714
1477470801.069:   -662  85  11  714
1477470801.070:   -688  85  11  714
1477470801.070:   -718  85  11  714
1477470801.071:   -752  85  11  714
1477470801.071:   -787  85  11  714
1477470801.071:   -821  85  11  714
1477470801.071:   -857  85  11  714
1477470801.072:   -902  85  11  714
1477470801.072:   -953  85  11  714
1477470801.107:  -1002  85  11  714
1477470801.108:  -1044  85  11  714
1477470801.108:  -1080  85  11  714
1477470801.109:  -1115  85  11  714
1477470801.109:  -1147  85  11  714
1477470801.109:  -1174  85  11  714
1477470801.109:  -1198  85  11  714
1477470801.110:  -1222  85  11  714
1477470801.110:  -1238  85  11  714
1477470801.110:  -1239  85  11  714
1477470801.111:  -1226  85  11  714
1477470801.111:  -1215  85  11  714
1477470801.111:  -1222  85  11  714
1477470801.112:  -1243  85  11  714
1477470801.112:  -1259  85  11  714
1477470801.112:  -1256  85  11  714
1477470801.112:  -1243  85  11  710
1477470801.113:  -1236  85  11  710
1477470801.113:  -1235  85  11  710
1477470801.115:  -1228  85  11  710
1477470801.115:  -1204  85  11  710
1477470801.116:  -1166  85  11  710
1477470801.117:  -1121  85  11  710
1477470801.123:  -1073  85  11  710
1477470801.123:  -1014  85  11  710
1477470801.142:   -943  85  11  710
1477470801.143:   -866  85  11  710
1477470801.143:   -790  85  11  710
1477470801.143:   -716  85  11  710
1477470801.144:   -641  85  11  710
1477470801.144:   -563  85  11  710
1477470801.145:   -482  85  11  710
1477470801.145:   -400  85  11  710
1477470801.146:   -321  85  11  710
1477470801.147:   -250  85  11  710
1477470801.147:   -188  85  11  710
1477470801.148:   -134  85  11  710
1477470801.149:    -77  85  11  710
1477470801.150:    -16  85  11  710
1477470801.151:     42  85  11  710
1477470801.153:     88  85  11  710
1477470801.165:    126  85  11  710
1477470801.166:    168  85  11  710
1477470801.166:    222  85  11  710
1477470801.167:    279  85  11  710
1477470801.168:    326  85  11  710
1477470801.168:    366  85  11  710
1477470801.168:    409  85  11  710
1477470801.169:    457  85  11  710
1477470801.174:    494  85  11  710
1477470801.175:    508  85  11  710
1477470801.184:    507  85  11  710
1477470801.184:    511  85  11  710
1477470801.185:    525  85  11  710
1477470801.185:    532  85  11  710
1477470801.186:    517  85  11  710
1477470801.187:    487  85  11  710
1477470801.187:    470  85  11  710
1477470801.191:    479  85  11  710
1477470801.191:    496  85  11  710
1477470801.193:    500  85  11  710
1477470801.194:    486  85  11  710
1477470801.195:    476  85  11  710
1477470801.197:    484  85  11  710
1477470801.201:    504  85  11  710
1477470801.208:    515  85  11  710
1477470801.209:    507  85  11  710
1477470801.209:    492  85  11  710
1477470801.209:    487  85  11  710
1477470801.209:    492  85  11  710
1477470801.211:    499  85  11  710
1477470801.212:    503  85  11  710
1477470801.215:    504  85  11  710
1477470801.218:    505  85  11  710
1477470801.219:    506  85  11  710
1477470801.227:    504  85  11  710
1477470801.228:    497  85  11  710
1477470801.228:    487  85  11  710
1477470801.228:    478  85  11  710
1477470801.228:    473  85  11  710
1477470801.231:    470  85  11  710
1477470801.232:    465  85  11  710
1477470801.237:    454  85  11  710
1477470801.237:    439  85  11  710
1477470801.238:    430  85  11  710
1477470801.241:    437  85  11  710
1477470801.244:    456  85  11  710
1477470801.249:    471  85  11  710
1477470801.249:    472  85  11  710
1477470801.253:    463  85  11  710
1477470801.253:    459  85  11  710
1477470801.254:    467  85  11  710
1477470801.254:    478  85  11  710
1477470801.256:    475  85  11  710
1477470801.259:    456  85  11  710
1477470801.260:    431  85  11  710
1477470801.265:    415  85  11  710
1477470801.265:    406  85  11  710
1477470801.268:    397  85  11  710
1477470801.268:    384  85  11  710
1477470801.270:    376  85  11  710
1477470801.272:    380  85  11  710
1477470801.273:    394  85  11  710
1477470801.302:    408  85  11  710
1477470801.303:    415  85  11  710
1477470801.303:    415  85  11  710
1477470801.303:    414  85  11  710
1477470801.303:    413  85  11  710
1477470801.303:    408  85  11  710
1477470801.303:    395  85  11  710
1477470801.304:    380  85  11  710
1477470801.304:    370  85  11  710
1477470801.304:    369  85  11  710
1477470801.304:    368  85  11  710
1477470801.304:    361  85  11  710
1477470801.304:    348  85  11  710
1477470801.305:    339  85  11  710
1477470801.305:    336  85  11  710
1477470801.306:    335  85  11  710
1477470801.307:    332  85  11  710
1477470801.309:    330  85  11  710
1477470801.311:    333  85  11  710
1477470801.313:    339  85  11  710
1477470801.314:    343  85  11  710
1477470801.317:    342  85  11  710
1477470801.330:    345  85  11  710
1477470801.330:    357  85  11  710
1477470801.330:    369  85  11  710
1477470801.330:    369  85  11  710
1477470801.330:    356  85  11  710
1477470801.331:    341  85  11  710
1477470801.332:    337  85  11  710
1477470801.333:    342  85  11  710
1477470801.335:    340  85  11  710
1477470801.337:    328  85  11  710
1477470801.338:    314  85  11  710
1477470801.341:    309  85  11  710
1477470801.342:    314  85  11  710
1477470801.346:    318  85  11  710
1477470801.346:    314  85  11  710
1477470801.352:    309  85  11  710
1477470801.366:    313  85  11  710
1477470801.368:    322  85  11  710
1477470801.369:    326  85  11  710
1477470801.370:    325  85  11  710
1477470801.371:    326  85  11  710
1477470801.371:    333  85  11  710
1477470801.372:    339  85  11  710
1477470801.373:    339  85  11  710
1477470801.374:    338  85  11  710
1477470801.374:    350  85  11  710
1477470801.375:    372  85  11  710
1477470801.377:    386  85  11  710
1477470801.395:    381  85  11  710
1477470801.395:    369  85  11  710
1477470801.396:    369  85  11  710
1477470801.396:    384  85  11  710
1477470801.396:    394  85  11  710
1477470801.396:    382  85  11  710
1477470801.397:    359  85  11  710
1477470801.419:    349  85  11  710
1477470801.513:    354  85  11  710
1477470801.513:    358  85  11  710
1477470801.513:    347  85  11  710
1477470801.513:    333  85  11  710
1477470801.514:    333  85  11  710
1477470801.514:    347  85  11  710
1477470801.514:    362  85  11  710
1477470801.514:    368  85  11  710
1477470801.515:    374  85  11  710
1477470801.515:    391  85  11  710
1477470801.515:    408  85  11  710
1477470801.515:    416  85  11  710
1477470801.515:    417  85  11  710
1477470801.515:    425  85  11  710
1477470801.515:    442  85  11  710
1477470801.516:    450  85  11  710
1477470801.516:    433  85  11  710
1477470801.517:    396  85  11  710
1477470801.517:    363  85  11  710
1477470801.517:    340  85  11  710
1477470801.517:    315  85  11  710
1477470801.517:    275  85  11  710
1477470801.518:    228  85  11  710
1477470801.518:    195  85  11  710
1477470801.518:    183  85  11  710
1477470801.518:    178  85  11  710
1477470801.518:    164  85  11  710
1477470801.519:    139  85  11  710
1477470801.519:    115  85  11  710
1477470801.519:    103  85  11  710
1477470801.519:    101  85  11  710
1477470801.519:     99  85  11  710
1477470801.519:     89  85  11  710
1477470801.520:     63  85  11  710
1477470801.520:     31  85  11  710
1477470801.520:     11  85  11  710
1477470801.520:     18  85  11  710
1477470801.520:     42  85  11  710
1477470801.521:     56  85  11  710
1477470801.521:     45  85  11  710
1477470801.521:     25  85  11  710
1477470801.521:     30  85  11  710
1477470801.521:     74  85  11  710
1477470801.521:    130  85  11  710
1477470801.522:    164  85  11  710
1477470801.522:    170  85  11  710
1477470801.522:    173  85  11  710
1477470801.522:    201  85  11  710
1477470801.545:    244  85  11  710
1477470801.546:    276  85  11  710
1477470801.546:    283  85  11  710
1477470801.546:    277  85  11  710
1477470801.547:    280  85  11  710
1477470801.547:    301  85  11  710
1477470801.547:    326  85  11  710
1477470801.547:    338  85  11  710
1477470801.547:    332  85  11  710
1477470801.547:    320  85  11  710
1477470801.547:    316  85  11  710
1477470801.548:    324  85  11  710
1477470801.548:    339  85  11  710
1477470801.548:    350  85  11  710
1477470801.548:    345  85  11  710
1477470801.548:    322  85  11  710
1477470801.549:    292  85  11  710
1477470801.549:    267  85  11  710
1477470801.549:    250  85  11  710
1477470801.549:    234  85  11  710
1477470801.549:    209  85  11  710
1477470801.549:    180  85  11  710
1477470801.550:    168  85  11  710
1477470801.550:    193  85  11  710
1477470801.550:    255  85  11  710
1477470801.550:    316  85  11  710
1477470801.550:    309  85  11  710
1477470801.550:    188  85  11  710
1477470801.551:    -29  85  11  710
1477470801.551:   -273  85  11  710
1477470801.551:   -499  85  11  710
1477470801.554:   -757  85  11  710
1477470801.569:  -1161  85  11  710
1477470801.569:  -1754  85  11  710
1477470801.569:  -2426  85  11  710
1477470801.569:  -2966  85  11  710
1477470801.569:  -3237  85  11  710
1477470801.569:  -3265  85  11  710
1477470801.570:  -3165  85  11  710
1477470801.570:  -2969  85  11  710
1477470801.570:  -2568  85  11  710
1477470801.570:  -1830  85  11  710
1477470801.570:   -762  85  11  710
1477470801.573:    456  85  11  710
1477470801.574:   1576  85  11  710
1477470801.577:   2434  85  11  710
1477470801.579:   3004  85  11  710
1477470801.583:   3343  85  11  710
1477470801.598:   3499  85  11  710
1477470801.598:   3469  85  11  710
1477470801.598:   3228  85  11  710
1477470801.598:   2790  85  11  710
1477470801.598:   2237  85  11  710
1477470801.598:   1698  85  11  710
1477470801.598:   1277  85  11  710
1477470801.600:   1009  85  11  710
1477470801.600:    866  85  11  710
1477470801.603:    801  85  11  710
1477470801.603:    785  85  11  710
1477470801.608:    797  85  11  710
1477470801.610:    812  85  11  710
1477470801.612:    803  85  11  710
1477470801.612:    760  85  11  710
1477470801.612:    696  85  11  710
1477470801.619:    627  85  11  710
1477470801.619:    555  85  11  710
1477470801.622:    479  85  11  710
1477470801.628:    414  85  11  710
1477470801.639:    383  85  11  710
1477470801.640:    395  85  11  710
1477470801.640:    429  85  11  710
1477470801.640:    454  85  11  710
1477470801.640:    449  85  11  710
1477470801.641:    420  85  11  710
1477470801.641:    383  85  11  710
1477470801.641:    343  85  11  710
1477470801.643:    301  85  11  710
1477470801.644:    264  85  11  710
1477470801.647:    250  85  11  710
1477470801.651:    266  85  11  710
1477470801.660:    305  85  11  710
1477470801.661:    339  85  11  710
1477470801.661:    347  85  11  710
1477470801.661:    324  85  11  710
1477470801.661:    283  85  11  710
1477470801.661:    245  85  11  710
1477470801.661:    223  85  11  710
1477470801.661:    213  85  11  710
1477470801.662:    206  85  11  710
1477470801.662:    196  85  11  710
1477470801.663:    186  85  11  710
1477470801.671:    184  85  11  710
1477470801.672:    192  85  11  710
1477470801.673:    201  85  11  710
1477470801.675:    201  85  11  710
1477470801.676:    192  85  11  710
1477470801.680:    179  85  11  710
1477470801.681:    170  85  11  710
1477470801.681:    165  85  11  710
1477470801.683:    164  85  11  710
1477470801.683:    163  85  11  710
1477470801.683:    164  85  11  710
1477470801.685:    159  85  11  710
1477470801.686:    146  85  11  710
1477470801.687:    129  85  11  710
1477470801.691:    118  85  11  710
1477470801.709:    109  85  11  710
1477470801.709:     95  85  11  710
1477470801.709:     70  85  11  710
1477470801.709:     39  85  11  710
1477470801.709:      9  85  11  710
1477470801.710:    -17  85  11  710
1477470801.710:    -43  85  11  710
1477470801.711:    -68  85  11  710
1477470801.712:    -82  85  11  710
1477470801.714:    -86  85  11  710
1477470801.714:    -89  85  11  710
1477470801.715:   -101  85  11  710
1477470801.718:   -118  85  11  710
1477470801.718:   -126  85  11  710
1477470801.721:   -124  85  11  710
1477470801.722:   -131  85  11  710
1477470801.723:   -159  85  11  710
1477470801.726:   -200  85  11  710
1477470801.737:   -234  85  11  710
1477470801.737:   -256  85  11  710
1477470801.737:   -283  85  11  710
1477470801.737:   -330  85  11  710
1477470801.737:   -387  85  11  710
1477470801.739:   -430  85  11  710
1477470801.739:   -449  85  11  710
1477470801.741:   -461  85  11  710
1477470801.743:   -488  85  11  710
1477470801.744:   -532  85  11  710
1477470801.759:   -573  85  11  710
1477470801.760:   -597  85  11  710
1477470801.760:   -613  85  11  710
1477470801.760:   -638  85  11  710
1477470801.760:   -680  85  11  710
1477470801.761:   -727  85  11  710
1477470801.763:   -769  85  11  710
1477470801.763:   -811  85  11  710
1477470801.765:   -863  85  11  710
1477470801.766:   -928  85  11  710
1477470801.767:   -991  85  11  710
1477470801.770:  -1039  85  11  710
1477470801.770:  -1075  85  11  710
1477470801.772:  -1115  85  11  710
1477470801.786:  -1162  85  11  710
1477470801.787:  -1202  85  11  710
1477470801.787:  -1219  85  11  710
1477470801.787:  -1223  85  11  710
1477470801.787:  -1233  85  11  710
1477470801.788:  -1255  85  11  710
1477470801.790:  -1275  85  11  705
1477470801.791:  -1273  85  11  705
1477470801.791:  -1253  85  11  705
1477470801.792:  -1237  85  11  705
1477470801.794:  -1233  85  11  705
1477470801.795:  -1234  85  11  705
1477470801.807:  -1223  85  11  705
1477470801.808:  -1201  85  11  705
1477470801.808:  -1181  85  11  705
1477470801.808:  -1170  85  11  705
1477470801.808:  -1162  85  11  705
1477470801.808:  -1143  85  11  705
1477470801.810:  -1112  85  11  705
1477470801.812:  -1071  85  11  705
1477470801.818:  -1022  85  11  705
1477470801.820:   -964  85  11  705
1477470801.830:   -901  85  11  705
1477470801.830:   -837  85  11  705
1477470801.830:   -774  85  11  705
1477470801.831:   -707  85  11  705
1477470801.831:   -628  85  11  705
1477470801.831:   -543  85  11  705
1477470801.831:   -462  85  11  705
1477470801.833:   -390  85  11  705
1477470801.833:   -317  85  11  705
1477470801.835:   -232  85  11  705
1477470801.838:   -135  85  11  705
1477470801.840:    -46  85  11  705
1477470801.853:     19  85  11  705
1477470801.854:     63  85  11  705
1477470801.854:    106  85  11  705
1477470801.854:    162  85  11  705
1477470801.854:    224  85  11  705
1477470801.854:    275  85  11  705
1477470801.854:    305  85  11  705
1477470801.858:    324  85  11  705
1477470801.858:    347  85  11  705
1477470801.861:    379  85  11  705
1477470801.862:    414  85  11  705
1477470801.863:    445  85  11  705
1477470801.865:    472  85  11  705
1477470801.867:    493  85  11  705
1477470801.894:    508  85  11  705
1477470801.895:    517  85  11  705
1477470801.895:    524  85  11  705
1477470801.895:    534  85  11  705
1477470801.895:    546  85  11  705
1477470801.895:    556  85  11  705
1477470801.896:    560  85  11  705
1477470801.896:    563  85  11  705
1477470801.896:    568  85  11  705
1477470801.896:    572  85  11  705
1477470801.897:    572  85  11  705
1477470801.897:    567  85  11  705
1477470801.897:    564  85  11  705
1477470801.897:    565  85  11  705
1477470801.899:    565  85  11  705
1477470801.899:    554  85  11  705
1477470801.901:    535  85  11  705
1477470801.905:    518  85  11  705
1477470801.906:    515  85  11  705
1477470801.907:    522  85  11  705
1477470801.909:    530  85  11  705
1477470801.911:    528  85  11  705
1477470801.924:    519  85  11  705
1477470801.924:    515  85  11  705
1477470801.924:    519  85  11  705
1477470801.925:    524  85  11  705
1477470801.925:    523  85  11  705
1477470801.925:    513  85  11  705
1477470801.925:    500  85  11  705
1477470801.926:    493  85  11  705
1477470801.927:    488  85  11  705
1477470801.931:    479  85  11  705
1477470801.932:    463  85  11  705
1477470801.933:    448  85  11  705
1477470801.947:    446  85  11  705
1477470801.947:    456  85  11  705
1477470801.948:    464  85  11  705
1477470801.948:    458  85  11  705
1477470801.948:    441  85  11  705
1477470801.948:    431  85  11  705
1477470801.948:    437  85  11  705
1477470801.950:    449  85  11  705
1477470801.951:    450  85  11  705
1477470801.953:    437  85  11  705
1477470801.955:    425  85  11  705
1477470801.960:    424  85  11  705
1477470801.960:    431  85  11  705
1477470801.961:    430  85  11  705
1477470801.962:    415  85  11  705
1477470801.965:    396  85  11  705
1477470801.978:    386  85  11  705
1477470801.978:    387  85  11  705
1477470801.978:    386  85  11  705
1477470801.978:    379  85  11  705
1477470801.979:    368  85  11  705
1477470801.979:    361  85  11  705
1477470801.980:    360  85  11  705
1477470801.981:    362  85  11  705
1477470801.982:    363  85  11  705
1477470801.987:    360  85  11  705
1477470801.987:    355  85  11  705
1477470801.990:    349  85  11  705
1477470801.991:    344  85  11  705
1477470801.993:    342  85  11  705
1477470801.995:    344  85  11  705
1477470801.996:    346  85  11  705
1477470802.000:    347  85  11  705
1477470802.001:    345  85  11  705
1477470802.012:    341  85  11  705
1477470802.013:    335  85  11  705
1477470802.013:    333  85  11  705
1477470802.015:    335  85  11  705
1477470802.015:    337  85  11  705
1477470802.015:    330  85  11  705
1477470802.015:    311  85  11  705
1477470802.018:    291  85  11  705
1477470802.018:    283  85  11  705
1477470802.020:    289  85  11  705
1477470802.022:    297  85  11  705
1477470802.023:    295  85  11  705
1477470802.036:    287  85  11  705
1477470802.036:    288  85  11  705
1477470802.037:    305  85  11  705
1477470802.037:    327  85  11  705
1477470802.037:    339  85  11  705
1477470802.037:    338  85  11  705
1477470802.041:    335  85  11  705
1477470802.041:    337  85  11  705
1477470802.042:    339  85  11  705
1477470802.044:    331  85  11  705
1477470802.046:    317  85  11  705
1477470802.048:    307  85  11  705
1477470802.059:    309  85  11  705
1477470802.060:    316  85  11  705
1477470802.060:    316  85  11  705
1477470802.060:    308  85  11  705
1477470802.060:    306  85  11  705
1477470802.060:    316  85  11  705
1477470802.061:    334  85  11  705
1477470802.063:    348  85  11  705
1477470802.065:    348  85  11  705
1477470802.067:    342  85  11  705
1477470802.069:    339  85  11  705
1477470802.073:    341  85  11  705
1477470802.073:    347  85  11  705
1477470802.076:    351  85  11  705
1477470802.080:    355  85  11  705
1477470802.081:    358  85  11  705
1477470802.082:    357  85  11  705
1477470802.083:    351  85  11  705
1477470802.087:    345  85  11  705
1477470802.087:    343  85  11  705
1477470802.090:    346  85  11  705
1477470802.147:    349  85  11  705
1477470802.147:    350  85  11  705
1477470802.147:    349  85  11  705
1477470802.148:    350  85  11  705
1477470802.148:    355  85  11  705
1477470802.148:    360  85  11  705
1477470802.148:    365  85  11  705
1477470802.162:    368  85  11  705
1477470802.162:    369  85  11  705
1477470802.162:    368  85  11  705
1477470802.162:    364  85  11  705
1477470802.163:    365  85  11  705
1477470802.163:    370  85  11  705
1477470802.163:    372  85  11  705
1477470802.164:    366  85  11  705
1477470802.164:    357  85  11  705
1477470802.164:    357  85  11  705
1477470802.165:    368  85  11  705
1477470802.165:    379  85  11  705
1477470802.165:    377  85  11  705
1477470802.165:    367  85  11  705
1477470802.166:    368  85  11  705
1477470802.166:    387  85  11  705
1477470802.167:    412  85  11  705
1477470802.167:    422  85  11  705
1477470802.168:    411  85  11  705
1477470802.168:    392  85  11  705
1477470802.169:    375  85  11  705
1477470802.169:    361  85  11  705
1477470802.169:    345  85  11  705
1477470802.169:    326  85  11  705
1477470802.170:    306  85  11  705
1477470802.170:    285  85  11  705
1477470802.171:    256  85  11  705
1477470802.171:    225  85  11  705
1477470802.172:    206  85  11  705
1477470802.172:    203  85  11  705
1477470802.173:    200  85  11  705
1477470802.173:    176  85  11  705
1477470802.174:    130  85  11  705
1477470802.174:     86  85  11  705
1477470802.174:     70  85  11  705
1477470802.178:     73  85  11  705
1477470802.178:     70  85  11  705
1477470802.178:     44  85  11  705
1477470802.180:      5  85  11  705
1477470802.181:    -22  85  11  705
1477470802.182:    -26  85  11  705
1477470802.185:    -14  85  11  705
1477470802.193:     -3  85  11  705
1477470802.195:      0  85  11  705
1477470802.196:      2  85  11  705
1477470802.196:     11  85  11  705
1477470802.196:     32  85  11  705
1477470802.200:     60  85  11  705
1477470802.200:     89  85  11  705
1477470802.201:    115  85  11  705
1477470802.205:    139  85  11  705
1477470802.206:    164  85  11  705
1477470802.207:    192  85  11  705
1477470802.210:    219  85  11  705
1477470802.210:    246  85  11  705
1477470802.216:    275  85  11  705
1477470802.234:    303  85  11  705
1477470802.235:    324  85  11  705
1477470802.235:    332  85  11  705
1477470802.235:    330  85  11  705
1477470802.235:    326  85  11  705
1477470802.235:    324  85  11  705
1477470802.236:    320  85  11  705
1477470802.236:    310  85  11  705
1477470802.236:    295  85  11  705
1477470802.236:    283  85  11  705
1477470802.237:    276  85  11  705
1477470802.237:    270  85  11  705
1477470802.237:    258  85  11  705
1477470802.243:    240  85  11  705
1477470802.243:    223  85  11  705
1477470802.245:    214  85  11  705
1477470802.246:    210  85  11  705
1477470802.247:    205  85  11  705
1477470802.251:    199  85  11  705
1477470802.252:    207  85  11  705
1477470802.255:    244  85  11  705
1477470802.256:    305  85  11  705
1477470802.275:    340  85  11  705
1477470802.275:    282  85  11  705
1477470802.276:    107  85  11  705
1477470802.276:   -132  85  11  705
1477470802.276:   -362  85  11  705
1477470802.277:   -585  85  11  705
1477470802.277:   -899  85  11  705
1477470802.277:  -1404  85  11  705
1477470802.277:  -2059  85  11  705
1477470802.278:  -2679  85  11  705
1477470802.279:  -3070  85  11  705
1477470802.279:  -3184  85  11  705
1477470802.281:  -3115  85  11  705
1477470802.282:  -2948  85  11  705
1477470802.284:  -2639  85  11  705
1477470802.286:  -2051  85  11  705
1477470802.297:  -1116  85  11  705
1477470802.297:     67  85  11  705
1477470802.297:   1269  85  11  705
1477470802.298:   2274  85  11  705
1477470802.298:   2983  85  11  705
1477470802.299:   3413  85  11  705
1477470802.301:   3627  85  11  705
1477470802.302:   3660  85  11  705
1477470802.308:   3510  85  11  705
1477470802.310:   3164  85  11  705
1477470802.310:   2656  85  11  705
1477470802.311:   2080  85  11  705
1477470802.313:   1559  85  11  705
1477470802.315:   1186  85  11  705
1477470802.317:    973  85  11  705
1477470802.322:    873  85  11  705
1477470802.339:    828  85  11  705
1477470802.339:    802  85  11  705
1477470802.339:    787  85  11  705
1477470802.340:    779  85  11  705
1477470802.340:    759  85  11  705
1477470802.340:    710  85  11  705
1477470802.340:    634  85  11  705
1477470802.340:    551  85  11  705
1477470802.340:    480  85  11  705
1477470802.340:    427  85  11  705
1477470802.341:    387  85  11  705
1477470802.341:    360  85  11  705
1477470802.348:    353  85  11  705
1477470802.348:    373  85  11  705
1477470802.348:    402  85  11  705
1477470802.349:    409  85  11  705
1477470802.352:    374  85  11  705
1477470802.378:    310  85  11  705
1477470802.379:    251  85  11  705
1477470802.382:    219  85  11  705
1477470802.385:    213  85  11  705
1477470802.385:    221  85  11  705
1477470802.385:    232  85  11  705
1477470802.385:    247  85  11  705
1477470802.386:    265  85  11  705
1477470802.386:    274  85  11  705
1477470802.386:    262  85  11  705
1477470802.386:    230  85  11  705
1477470802.388:    198  85  11  705
1477470802.388:    179  85  11  705
1477470802.388:    175  85  11  705
1477470802.388:    173  85  11  705
1477470802.389:    163  85  11  705
1477470802.389:    147  85  11  705
1477470802.391:    134  85  11  705
1477470802.392:    122  85  11  705
1477470802.412:    105  85  11  705
1477470802.427:     74  85  11  705
1477470802.427:     39  85  11  705
1477470802.428:     17  85  11  705
1477470802.428:     14  85  11  705
1477470802.428:     17  85  11  705
1477470802.429:     14  85  11  705
1477470802.429:      4  85  11  705
1477470802.429:     -4  85  11  705
1477470802.430:     -5  85  11  705
1477470802.432:     -6  85  11  705
1477470802.435:    -15  85  11  705
1477470802.449:    -27  85  11  705
1477470802.449:    -33  85  11  705
1477470802.450:    -30  85  11  705
1477470802.450:    -28  85  11  705
1477470802.450:    -38  85  11  705
1477470802.450:    -59  85  11  705
1477470802.450:    -82  85  11  705
1477470802.450:   -101  85  11  705
1477470802.451:   -118  85  11  705
1477470802.451:   -138  85  11  705
1477470802.451:   -163  85  11  705
1477470802.451:   -192  85  11  705
1477470802.451:   -222  85  11  705
1477470802.452:   -254  85  11  705
1477470802.452:   -283  85  11  705
1477470802.452:   -303  85  11  705
1477470802.452:   -312  85  11  705
1477470802.452:   -316  85  11  705
1477470802.452:   -324  85  11  705
1477470802.453:   -341  85  11  705
1477470802.456:   -363  85  11  705
1477470802.457:   -381  85  11  705
1477470802.468:   -393  85  11  705
1477470802.468:   -404  85  11  705
1477470802.468:   -425  85  11  705
1477470802.469:   -461  85  11  705
1477470802.469:   -512  85  11  705
1477470802.471:   -572  85  11  705
1477470802.472:   -635  85  11  705
1477470802.472:   -695  85  11  705
1477470802.473:   -747  85  11  705
1477470802.474:   -794  85  11  705
1477470802.477:   -843  85  11  705
1477470802.479:   -903  86  11  703
1477470802.486:   -972  86  11  703
1477470802.487:  -1037  86  11  703
1477470802.488:  -1086  86  11  703
1477470802.489:  -1116  86  11  703
1477470802.491:  -1136  86  11  703
1477470802.492:  -1158  86  11  703
1477470802.494:  -1182  86  11  703
1477470802.498:  -1205  86  11  703
1477470802.499:  -1223  86  11  703
1477470802.500:  -1237  86  11  703
1477470802.502:  -1252  86  11  703
1477470802.505:  -1270  86  11  703
1477470802.506:  -1288  86  11  703
1477470802.507:  -1304  86  11  703
1477470802.514:  -1318  86  11  703
1477470802.514:  -1330  86  11  703
1477470802.521:  -1342  86  11  703
1477470802.521:  -1350  86  11  703
1477470802.522:  -1351  86  11  703
1477470802.522:  -1344  86  11  703
1477470802.522:  -1331  86  11  703
1477470802.525:  -1314  86  11  703
1477470802.525:  -1298  86  11  703
1477470802.527:  -1281  86  11  703
1477470802.528:  -1259  86  11  703
1477470802.529:  -1227  86  11  703
1477470802.534:  -1188  86  11  703
1477470802.536:  -1144  86  11  703
1477470802.544:  -1095  86  11  703
1477470802.544:  -1040  86  11  703
1477470802.546:   -975  86  11  703
1477470802.547:   -905  86  11  703
1477470802.549:   -835  86  11  703
1477470802.550:   -763  86  11  703
1477470802.557:   -688  86  11  703
1477470802.559:   -610  86  11  703
1477470802.559:   -532  86  11  703
1477470802.560:   -457  86  11  703
1477470802.561:   -385  86  11  703
1477470802.562:   -314  86  11  703
1477470802.570:   -244  86  11  703
1477470802.572:   -181  86  11  703
1477470802.579:   -125  86  11  703
1477470802.580:    -70  86  11  703
1477470802.592:    -11  86  11  703
1477470802.593:     52  86  11  703
1477470802.593:    110  86  11  703
1477470802.593:    156  86  11  703
1477470802.593:    194  86  11  703
1477470802.600:    234  86  11  703
1477470802.601:    281  86  11  703
1477470802.601:    331  86  11  703
1477470802.602:    374  86  11  703
1477470802.605:    403  86  11  703
1477470802.609:    420  86  11  703
1477470802.611:    434  86  11  703
1477470802.611:    455  86  11  703
1477470802.611:    481  86  11  703
1477470802.612:    506  86  11  703
1477470802.612:    523  86  11  703
1477470802.612:    532  86  11  703
1477470802.612:    543  86  11  703
1477470802.613:    556  86  11  703
1477470802.621:    567  86  11  703
1477470802.621:    570  86  11  703
1477470802.622:    566  86  11  703
1477470802.636:    564  86  11  703
1477470802.637:    566  86  11  703
1477470802.637:    565  86  11  703
1477470802.650:    552  86  11  703
1477470802.650:    533  86  11  703
1477470802.651:    523  86  11  703
1477470802.651:    529  86  11  703
1477470802.653:    542  86  11  703
1477470802.653:    550  86  11  703
1477470802.655:    551  86  11  703
1477470802.657:    554  86  11  703
1477470802.657:    567  86  11  703
1477470802.657:    587  86  11  703
1477470802.657:    600  86  11  703
1477470802.657:    598  86  11  703
1477470802.660:    581  86  11  703
1477470802.674:    558  86  11  703
1477470802.674:    538  86  11  703
1477470802.674:    524  86  11  703
1477470802.675:    513  86  11  703
1477470802.675:    505  86  11  703
1477470802.675:    497  86  11  703
1477470802.675:    494  86  11  703
1477470802.675:    497  86  11  703
1477470802.675:    503  86  11  703
1477470802.681:    505  86  11  703
1477470802.681:    501  86  11  703
1477470802.683:    492  86  11  703
1477470802.685:    482  86  11  703
1477470802.694:    470  86  11  703
1477470802.696:    455  86  11  703
1477470802.696:    438  86  11  703
1477470802.696:    428  86  11  703
1477470802.696:    431  86  11  703
1477470802.696:    442  86  11  703
1477470802.696:    448  86  11  703
1477470802.698:    446  86  11  703
1477470802.708:    444  86  11  703
1477470802.709:    453  86  11  703
1477470802.710:    468  86  11  703
1477470802.710:    475  86  11  703
1477470802.717:    463  86  11  703
1477470802.721:    439  86  11  703
1477470802.723:    419  86  11  703
1477470802.731:    413  86  11  703
1477470802.731:    410  86  11  703
1477470802.739:    402  86  11  703
1477470802.740:    385  86  11  703
1477470802.740:    371  86  11  703
1477470802.740:    365  86  11  703
1477470802.740:    364  86  11  703
1477470802.740:    364  86  11  703
1477470802.742:    362  86  11  703
1477470802.742:    364  86  11  703
1477470802.742:    368  86  11  703
1477470802.742:    367  86  11  703
1477470802.742:    354  86  11  703
1477470802.743:    335  86  11  703
1477470802.744:    320  86  11  703
1477470802.746:    315  86  11  703
1477470802.746:    319  86  11  703
1477470802.746:    322  86  11  703
1477470802.746:    323  86  11  703
1477470802.749:    323  86  11  703
1477470802.757:    324  86  11  703
1477470802.757:    326  86  11  703
1477470802.758:    329  86  11  703
1477470802.758:    330  86  11  703
1477470802.761:    327  86  11  703
1477470802.761:    316  86  11  703
1477470802.762:    295  86  11  703
1477470802.762:    270  86  11  703
1477470802.764:    250  86  11  703
1477470802.766:    243  86  11  703
1477470802.777:    244  86  11  703
1477470802.777:    246  86  11  703
1477470802.777:    244  86  11  703
1477470802.777:    245  86  11  703
1477470802.777:    255  86  11  703
1477470802.777:    270  86  11  703
1477470802.843:    284  86  11  703
1477470802.844:    291  86  11  703
1477470802.844:    292  86  11  703
1477470802.844:    290  86  11  703
1477470802.844:    289  86  11  703
1477470802.845:    287  86  11  703
1477470802.845:    282  86  11  703
1477470802.845:    274  86  11  703
1477470802.845:    266  86  11  703
1477470802.845:    259  86  11  703
1477470802.846:    257  86  11  703
1477470802.846:    258  86  11  703
1477470802.846:    258  86  11  703
1477470802.846:    254  86  11  703
1477470802.847:    244  86  11  703
1477470802.847:    235  86  11  703
1477470802.847:    231  86  11  703
1477470802.847:    234  86  11  703
1477470802.847:    238  86  11  703
1477470802.848:    240  86  11  703
1477470802.848:    236  86  11  703
1477470802.848:    230  86  11  703
1477470802.849:    226  86  11  703
1477470802.849:    227  86  11  703
1477470802.849:    236  86  11  703
1477470802.849:    251  86  11  703
1477470802.849:    265  86  11  703
1477470802.850:    274  86  11  703
1477470802.850:    277  86  11  703
1477470802.850:    276  86  11  703
1477470802.866:    276  86  11  703
1477470802.866:    278  86  11  703
1477470802.866:    281  86  11  703
1477470802.866:    281  86  11  703
1477470802.867:    277  86  11  703
1477470802.867:    271  86  11  703
1477470802.867:    266  86  11  703
1477470802.867:    266  86  11  703
1477470802.867:    271  86  11  703
1477470802.867:    278  86  11  703
1477470802.867:    287  86  11  703
1477470802.868:    296  86  11  703
1477470802.868:    306  86  11  703
1477470802.868:    314  86  11  703
1477470802.868:    319  86  11  703
1477470802.868:    320  86  11  703
1477470802.868:    317  86  11  703
1477470802.868:    311  86  11  703
1477470802.868:    303  86  11  703
1477470802.869:    293  86  11  703
1477470802.869:    282  86  11  703
1477470802.871:    275  86  11  703
1477470802.872:    274  86  11  703
1477470802.873:    281  86  11  703
1477470802.875:    293  86  11  703
1477470802.878:    304  86  11  703
1477470802.878:    310  86  11  703
1477470802.883:    315  86  11  703
1477470802.904:    323  86  11  703
1477470802.905:    336  86  11  703
1477470802.906:    350  86  11  703
1477470802.906:    359  86  11  703
1477470802.906:    365  86  11  703
1477470802.907:    373  86  11  703
1477470802.907:    384  86  11  703
1477470802.907:    395  86  11  703
1477470802.908:    402  86  11  703
1477470802.908:    407  86  11  703
1477470802.912:    410  86  11  703
1477470802.912:    404  86  11  703
1477470802.913:    381  86  11  703
1477470802.913:    347  86  11  703
1477470802.913:    318  86  11  703
1477470802.913:    301  86  11  703
1477470802.914:    287  86  11  703
1477470802.914:    260  86  11  703
1477470802.921:    220  86  11  703
1477470802.922:    184  86  11  703
1477470802.934:    164  86  11  703
1477470802.934:    153  86  11  703
1477470802.934:    133  86  11  703
1477470802.935:    102  86  11  703
1477470802.935:     76  86  11  703
1477470802.935:     68  86  11  703
1477470802.935:     73  86  11  703
1477470802.935:     73  86  11  703
1477470802.936:     59  86  11  703
1477470802.942:     40  86  11  703
1477470802.942:     33  86  11  703
1477470802.943:     42  86  11  703
1477470802.955:     56  86  11  703
1477470802.955:     62  86  11  703
1477470802.955:     59  86  11  703
1477470802.955:     56  86  11  703
1477470802.955:     66  86  11  703
1477470802.956:     95  86  11  703
1477470802.956:    134  86  11  703
1477470802.960:    169  86  11  703
1477470802.960:    191  86  11  703
1477470802.964:    204  86  11  703
1477470802.964:    222  86  11  703
1477470802.966:    250  86  11  703
1477470802.967:    282  86  11  703
1477470802.970:    305  86  11  703
1477470802.976:    317  86  11  703
1477470802.977:    328  86  11  703
1477470802.978:    346  86  11  703
1477470802.979:    369  86  11  703
1477470802.980:    390  86  11  703
1477470802.981:    405  86  11  703
1477470802.988:    414  86  11  703
1477470802.989:    417  86  11  703
1477470803.002:    418  86  11  703
1477470803.003:    417  86  11  703
1477470803.004:    415  86  11  703
1477470803.004:    407  86  11  703
1477470803.005:    386  86  11  703
1477470803.005:    353  86  11  703
1477470803.007:    319  86  11  703
1477470803.007:    294  86  11  703
1477470803.009:    277  86  11  703
1477470803.009:    260  86  11  703
1477470803.010:    247  86  11  703
1477470803.011:    258  86  11  703
1477470803.016:    311  86  11  703
1477470803.017:    389  86  11  703
1477470803.024:    430  86  11  703
1477470803.025:    369  86  11  703
1477470803.025:    199  86  11  703
1477470803.025:    -27  86  11  703
1477470803.025:   -255  86  11  703
1477470803.025:   -509  86  11  703
1477470803.027:   -883  86  11  703
1477470803.028:  -1436  86  11  703
1477470803.033:  -2097  86  11  703
1477470803.034:  -2681  86  11  703
1477470803.036:  -3030  86  11  703
1477470803.036:  -3127  86  11  703
1477470803.041:  -3060  86  11  703
1477470803.042:  -2887  86  11  703
1477470803.044:  -2532  86  11  703
1477470803.044:  -1859  86  11  703
1477470803.046:   -835  86  11  703
1477470803.057:    393  86  11  703
1477470803.066:   1573  86  11  703
1477470803.067:   2515  86  11  703
1477470803.067:   3175  86  11  703
1477470803.068:   3606  86  11  703
1477470803.068:   3854  86  11  703
1477470803.069:   3902  86  11  703
1477470803.070:   3711  86  11  703
1477470803.070:   3293  86  11  703
1477470803.071:   2737  86  11  703
1477470803.071:   2169  86  11  703
1477470803.072:   1689  86  11  703
1477470803.073:   1340  86  11  703
1477470803.087:   1113  86  11  703
1477470803.087:    980  86  11  703
1477470803.088:    912  86  11  703
1477470803.088:    881  86  11  703
1477470803.088:    863  86  11  703
1477470803.088:    839  86  11  703
1477470803.088:    801  86  11  703
1477470803.090:    751  86  11  703
1477470803.093:    692  86  11  703
1477470803.093:    622  86  11  703
1477470803.097:    545  86  11  703
1477470803.097:    476  86  11  703
1477470803.099:    429  86  11  703
1477470803.100:    410  86  11  703
1477470803.111:    417  86  11  703
1477470803.111:    439  86  11  703
1477470803.112:    457  86  11  703
1477470803.112:    454  86  11  703
1477470803.112:    422  86  11  703
1477470803.114:    371  86  11  703
1477470803.116:    319  86  11  703
1477470803.120:    286  86  11  703
1477470803.125:    281  86  11  703
1477470803.126:    298  86  11  703
1477470803.130:    325  86  11  703
1477470803.130:    347  86  11  703
1477470803.134:    355  86  11  703
1477470803.135:    346  86  11  703
1477470803.151:    322  86  11  703
1477470803.151:    289  86  11  703
1477470803.151:    254  86  11  703
1477470803.152:    231  86  11  703
1477470803.152:    226  86  11  703
1477470803.152:    237  86  11  703
1477470803.152:    254  86  11  703
1477470803.152:    265  86  11  703
1477470803.153:    268  86  11  703
1477470803.153:    269  86  11  703
1477470803.153:    270  86  11  703
1477470803.153:    266  86  11  703
1477470803.154:    250  86  11  703
1477470803.156:    228  86  11  703
1477470803.157:    211  86  11  703
1477470803.158:    203  86  11  703
1477470803.161:    200  86  11  703
1477470803.165:    194  86  11  703
1477470803.174:    182  86  11  703
1477470803.175:    169  86  11  703
1477470803.175:    158  86  11  703
1477470803.175:    146  86  11  703
1477470803.175:    131  86  11  703
1477470803.175:    115  86  11  703
1477470803.179:    100  86  11  703
1477470803.179:     88  86  11  703
1477470803.181:     74  86  11  703
1477470803.182:     56  86  11  703
1477470803.183:     34  86  11  703
1477470803.187:     13  86  11  703
1477470803.188:      0  86  11  703
1477470803.193:     -5  86  11  703
1477470803.193:     -4  86  11  703
1477470803.194:     -8  86  11  703
1477470803.196:    -23  86  11  703
1477470803.198:    -50  86  11  703
1477470803.200:    -79  86  11  703
1477470803.202:   -100  86  11  700
1477470803.226:   -115  86  11  700
1477470803.227:   -137  86  11  700
1477470803.228:   -172  86  11  700
1477470803.229:   -212  86  11  700
1477470803.229:   -245  86  11  700
1477470803.230:   -265  86  11  700
1477470803.234:   -279  86  11  700
1477470803.235:   -298  86  11  700
1477470803.235:   -323  86  11  700
1477470803.235:   -349  86  11  700
1477470803.235:   -376  86  11  700
1477470803.236:   -413  86  11  700
1477470803.236:   -459  86  11  700
1477470803.237:   -505  86  11  700
1477470803.249:   -540  86  11  700
1477470803.249:   -565  86  11  700
1477470803.249:   -597  86  11  700
1477470803.249:   -648  86  11  700
1477470803.250:   -706  86  11  700
1477470803.250:   -756  86  11  700
1477470803.250:   -790  86  11  700
1477470803.250:   -819  86  11  700
1477470803.250:   -855  86  11  700
1477470803.250:   -895  86  11  700
1477470803.253:   -930  86  11  700
1477470803.253:   -957  86  11  700
1477470803.255:   -982  86  11  700
1477470803.256:  -1010  86  11  700
1477470803.258:  -1036  86  11  700
1477470803.261:  -1053  86  11  700
1477470803.262:  -1066  86  11  700
1477470803.266:  -1083  86  11  700
1477470803.276:  -1107  86  11  700
1477470803.276:  -1127  86  11  700
1477470803.276:  -1133  86  11  700
1477470803.277:  -1126  86  11  700
1477470803.277:  -1116  86  11  700
1477470803.277:  -1112  86  11  700
1477470803.280:  -1110  86  11  700
1477470803.280:  -1100  86  11  700
1477470803.282:  -1078  86  11  700
1477470803.283:  -1051  86  11  700
1477470803.286:  -1028  86  11  700
1477470803.288:  -1009  86  11  700
1477470803.290:   -984  86  11  700
1477470803.294:   -940  86  11  700
1477470803.294:   -877  86  11  700
1477470803.296:   -807  86  11  700
1477470803.297:   -744  86  11  700
1477470803.299:   -690  86  11  700
1477470803.302:   -633  86  11  700
1477470803.303:   -563  86  11  700
1477470803.308:   -485  86  11  700
1477470803.308:   -414  86  11  700
1477470803.322:   -360  86  11  700
1477470803.322:   -313  86  11  700
1477470803.323:   -253  86  11  700
1477470803.323:   -177  86  11  700
1477470803.323:    -95  86  11  700
1477470803.325:    -20  86  11  700
1477470803.325:     48  86  11  700
1477470803.327:    118  86  11  700
1477470803.327:    193  86  11  700
1477470803.327:    264  86  11  700
1477470803.329:    326  86  11  700
1477470803.331:    381  86  11  700
1477470803.341:    430  86  11  700
1477470803.341:    471  86  11  700
1477470803.341:    497  86  11  700
1477470803.342:    511  86  11  700
1477470803.342:    527  86  11  700
1477470803.344:    554  86  11  700
1477470803.345:    586  86  11  700
1477470803.349:    610  86  11  700
1477470803.359:    625  86  11  700
1477470803.360:    645  86  11  700
1477470803.360:    679  86  11  700
1477470803.361:    719  86  11  700
1477470803.361:    749  86  11  700
1477470803.361:    758  86  11  700
1477470803.363:    754  86  11  700
1477470803.363:    748  86  11  700
1477470803.367:    745  86  11  700
1477470803.367:    742  86  11  700
1477470803.368:    735  86  11  700
1477470803.370:    727  86  11  700
1477470803.376:    719  86  11  700
1477470803.376:    709  86  11  700
1477470803.378:    697  86  11  700
1477470803.379:    689  86  11  700
1477470803.381:    695  86  11  700
1477470803.382:    713  86  11  700
1477470803.391:    728  86  11  700
1477470803.391:    726  86  11  700
1477470803.391:    711  86  11  700
1477470803.391:    699  86  11  700
1477470803.393:    702  86  11  700
1477470803.396:    711  86  11  700
1477470803.396:    715  86  11  700
1477470803.431:    708  86  11  700
1477470803.432:    697  86  11  700
1477470803.432:    690  86  11  700
1477470803.432:    686  86  11  700
1477470803.433:    679  86  11  700
1477470803.433:    669  86  11  700
1477470803.433:    659  86  11  700
1477470803.436:    652  86  11  700
1477470803.436:    646  86  11  700
1477470803.447:    636  86  11  700
1477470803.448:    621  86  11  700
1477470803.459:    608  86  11  700
1477470803.460:    601  86  11  700
1477470803.461:    603  86  11  700
1477470803.461:    611  86  11  700
1477470803.462:    620  86  11  700
1477470803.463:    629  86  11  700
1477470803.464:    636  86  11  700
1477470803.465:    643  86  11  700
1477470803.465:    647  86  11  700
1477470803.467:    644  86  11  700
1477470803.468:    630  86  11  700
1477470803.470:    609  86  11  700
1477470803.470:    588  86  11  700
1477470803.471:    570  86  11  700
1477470803.486:    554  86  11  700
1477470803.486:    536  86  11  700
1477470803.487:    518  86  11  700
1477470803.487:    506  86  11  700
1477470803.487:    506  86  11  700
1477470803.487:    516  86  11  700
1477470803.487:    528  86  11  700
1477470803.488:    532  86  11  700
1477470803.488:    525  86  11  700
1477470803.488:    512  86  11  700
1477470803.488:    501  86  11  700
1477470803.488:    497  86  11  700
1477470803.489:    495  86  11  700
1477470803.489:    489  86  11  700
1477470803.489:    474  86  11  700
1477470803.490:    458  86  11  700
1477470803.490:    451  86  11  700
1477470803.490:    457  86  11  700
1477470803.490:    467  86  11  700
1477470803.491:    467  86  11  700
1477470803.491:    456  86  11  700
1477470803.491:    440  86  11  700
1477470803.492:    429  86  11  700
1477470803.493:    426  86  11  700
1477470803.495:    424  86  11  700
1477470803.499:    419  86  11  700
1477470803.499:    408  86  11  700
1477470803.501:    396  86  11  700
1477470803.516:    389  86  11  700
1477470803.591:    394  86  11  700
1477470803.600:    408  86  11  700
1477470803.601:    426  86  11  700
1477470803.601:    441  86  11  700
1477470803.601:    449  86  11  700
1477470803.601:    453  86  11  700
1477470803.601:    459  86  11  700
1477470803.602:    465  86  11  700
1477470803.602:    468  86  11  700
1477470803.602:    467  86  11  700
1477470803.602:    462  86  11  700
1477470803.603:    453  86  11  700
1477470803.603:    440  86  11  700
1477470803.603:    425  86  11  700
1477470803.604:    415  86  11  700
1477470803.604:    415  86  11  700
1477470803.604:    422  86  11  700
1477470803.604:    430  86  11  700
1477470803.604:    434  86  11  700
1477470803.605:    436  86  11  700
1477470803.605:    440  86  11  700
1477470803.605:    447  86  11  700
1477470803.605:    456  86  11  700
1477470803.605:    466  86  11  700
1477470803.606:    478  86  11  700
1477470803.606:    489  86  11  700
1477470803.607:    490  86  11  700
1477470803.607:    481  86  11  700
1477470803.607:    470  86  11  700
1477470803.608:    467  86  11  700
1477470803.608:    469  86  11  700
1477470803.608:    464  86  11  700
1477470803.608:    447  86  11  700
1477470803.608:    425  86  11  700
1477470803.609:    413  86  11  700
1477470803.609:    415  86  11  700
1477470803.610:    425  86  11  700
1477470803.610:    431  86  11  700
1477470803.610:    427  86  11  700
1477470803.610:    419  86  11  700
1477470803.611:    413  86  11  700
1477470803.611:    412  86  11  700
1477470803.611:    415  86  11  700
1477470803.611:    419  86  11  700
1477470803.612:    417  86  11  700
1477470803.612:    409  86  11  700
1477470803.612:    400  86  11  700
1477470803.612:    400  86  11  700
1477470803.612:    414  86  11  700
1477470803.613:    434  86  11  700
1477470803.613:    447  86  11  700
1477470803.613:    449  86  11  700
1477470803.614:    453  86  11  700
1477470803.614:    471  86  11  700
1477470803.615:    499  86  11  700
1477470803.617:    519  86  11  700
1477470803.617:    522  86  11  700
1477470803.617:    519  86  11  700
1477470803.617:    520  86  11  700
1477470803.620:    524  86  11  700
1477470803.622:    517  86  11  700
1477470803.639:    492  86  11  700
1477470803.640:    462  86  11  700
1477470803.640:    440  86  11  700
1477470803.640:    423  86  11  700
1477470803.640:    398  86  11  700
1477470803.659:    361  86  11  700
1477470803.660:    325  86  11  700
1477470803.661:    307  86  11  700
1477470803.662:    302  86  11  700
1477470803.668:    291  86  11  700
1477470803.677:    265  86  11  700
1477470803.677:    234  86  11  700
1477470803.677:    216  86  11  700
1477470803.677:    215  86  11  700
1477470803.677:    209  86  11  700
1477470803.678:    182  86  11  700
1477470803.678:    140  86  11  700
1477470803.678:    105  86  11  700
1477470803.678:     97  86  11  700
1477470803.678:    105  86  11  700
1477470803.678:    105  86  11  700
1477470803.678:     88  86  11  700
1477470803.678:     69  86  11  700
1477470803.679:     75  86  11  700
1477470803.679:    115  86  11  700
1477470803.679:    170  86  11  700
1477470803.679:    212  86  11  700
1477470803.679:    230  86  11  700
1477470803.683:    237  86  11  700
1477470803.683:    252  86  11  700
1477470803.683:    279  86  11  700
1477470803.685:    303  86  11  700
1477470803.687:    313  86  11  700
1477470803.691:    311  86  11  700
1477470803.692:    309  86  11  700
1477470803.697:    313  86  11  700
1477470803.697:    323  86  11  700
1477470803.697:    335  86  11  700
1477470803.700:    349  86  11  700
1477470803.701:    368  86  11  700
1477470803.716:    385  86  11  700
1477470803.716:    391  86  11  700
1477470803.716:    384  86  11  700
1477470803.716:    376  86  11  700
1477470803.716:    377  86  11  700
1477470803.717:    380  86  11  700
1477470803.717:    369  86  11  700
1477470803.717:    338  86  11  700
1477470803.718:    303  86  11  700
1477470803.720:    285  86  11  700
1477470803.722:    286  86  11  700
1477470803.723:    285  86  11  700
1477470803.728:    271  86  11  700
1477470803.728:    265  86  11  700
1477470803.730:    299  86  11  700
1477470803.732:    373  86  11  700
1477470803.742:    430  86  11  700
1477470803.743:    391  86  11  700
1477470803.743:    233  86  11  700
1477470803.743:     11  86  11  700
1477470803.743:   -204  86  11  700
1477470803.747:   -424  86  11  700
1477470803.747:   -748  86  11  700
1477470803.748:  -1263  86  11  700
1477470803.749:  -1919  86  11  700
1477470803.751:  -2537  86  11  700
1477470803.755:  -2944  86  11  700
1477470803.756:  -3112  86  11  700
1477470803.763:  -3127  86  11  700
1477470803.763:  -3047  86  11  700
1477470803.765:  -2792  86  11  700
1477470803.766:  -2221  86  11  700
1477470803.766:  -1293  86  11  700
1477470803.767:   -149  86  11  700
1477470803.768:    975  86  11  700
1477470803.774:   1901  86  11  700
1477470803.774:   2589  86  11  700
1477470803.775:   3072  86  11  700
1477470803.778:   3374  86  11  700
1477470803.778:   3470  86  11  700
1477470803.790:   3334  86  11  700
1477470803.791:   2992  86  11  700
1477470803.792:   2523  86  11  700
1477470803.792:   2030  86  11  700
1477470803.821:   1597  86  11  700
1477470803.824:   1270  86  11  700
1477470803.825:   1057  86  11  700
1477470803.826:    938  86  11  700
1477470803.826:    882  86  11  700
1477470803.827:    857  86  11  700
1477470803.828:    836  86  11  700
1477470803.829:    805  86  11  700
1477470803.839:    760  86  11  700
1477470803.839:    704  86  11  700
1477470803.839:    640  86  11  700
1477470803.840:    571  86  11  700
1477470803.840:    496  86  11  700
1477470803.840:    432  86  11  700
1477470803.840:    393  86  11  700
1477470803.840:    387  86  11  700
1477470803.841:    406  86  11  700
1477470803.841:    431  86  11  700
1477470803.858:    442  86  11  700
1477470803.858:    430  86  11  700
1477470803.858:    397  86  11  700
1477470803.858:    353  86  11  700
1477470803.858:    310  86  11  700
1477470803.859:    281  86  11  700
1477470803.859:    277  86  11  700
1477470803.859:    298  86  11  700
1477470803.860:    333  86  11  700
1477470803.860:    362  86  11  700
1477470803.861:    374  86  11  700
1477470803.861:    366  86  11  700
1477470803.861:    345  86  11  700
1477470803.861:    319  86  11  700
1477470803.861:    295  86  11  700
1477470803.862:    276  86  11  700
1477470803.862:    266  86  11  700
1477470803.862:    267  86  11  700
1477470803.863:    275  86  11  700
1477470803.863:    278  86  11  700
1477470803.863:    272  86  11  700
1477470803.864:    257  86  11  700
1477470803.870:    241  86  11  700
1477470803.870:    224  86  11  700
1477470803.880:    207  86  11  700
1477470803.880:    191  86  11  700
1477470803.880:    180  86  11  700
1477470803.880:    178  86  11  700
1477470803.880:    179  86  11  700
1477470803.881:    175  86  11  700
1477470803.883:    165  86  11  700
1477470803.889:    157  86  11  700
1477470803.889:    156  86  11  700
1477470803.889:    162  86  11  700
1477470803.890:    163  86  11  700
1477470803.892:    154  86  11  700
1477470803.894:    139  86  11  700
1477470803.897:    125  86  11  700
1477470803.898:    113  86  11  700
1477470803.900:     93  86  11  700
1477470803.902:     58  86  11  700
1477470803.906:     14  86  11  700
1477470803.906:    -23  86  11  700
1477470803.910:    -42  86  11  700
1477470803.925:    -51  86  11  700
1477470803.925:    -64  86  11  700
1477470803.925:    -85  86  11  700
1477470803.925:   -105  86  11  700
1477470803.925:   -110  86  11  700
1477470803.925:   -103  86  11  700
1477470803.926:   -104  86  11  700
1477470803.926:   -125  86  11  700
1477470803.927:   -160  86  11  700
1477470803.928:   -190  86  11  700
1477470803.929:   -210  86  11  700
1477470803.934:   -231  86  11  700
1477470803.934:   -267  86  11  700
1477470803.936:   -314  86  11  700
1477470803.938:   -355  86  11  700
1477470803.939:   -379  86  11  700
1477470803.948:   -397  86  11  700
1477470803.948:   -425  86  11  700
1477470803.948:   -467  86  11  700
1477470803.948:   -509  86  11  700
1477470803.949:   -539  86  11  700
1477470803.951:   -558  86  11  700
1477470803.953:   -579  86  11  700
1477470803.956:   -614  86  11  700
1477470803.970:   -658  86  11  700
1477470803.971:   -699  84  11  707
1477470803.971:   -733  84  11  707
1477470803.971:   -763  84  11  707
1477470803.972:   -796  84  11  707
1477470803.972:   -829  84  11  707
1477470803.974:   -858  84  11  707
1477470803.974:   -880  84  11  707
1477470803.975:   -900  84  11  707
1477470803.975:   -921  84  11  707
1477470803.977:   -937  84  11  707
1477470803.978:   -942  84  11  707
1477470803.980:   -938  84  11  707
1477470803.982:   -940  84  11  707
1477470803.989:   -955  84  11  707
1477470803.989:   -979  84  11  707
1477470803.989:   -998  84  11  707
1477470803.991:  -1006  84  11  707
1477470803.993:  -1005  84  11  707
1477470803.994:  -1005  84  11  707
1477470803.997:  -1006  84  11  707
1477470803.998:  -1000  84  11  707
1477470804.000:   -982  84  11  707
1477470804.002:   -954  84  11  707
1477470804.006:   -921  84  11  707
1477470804.007:   -888  84  11  707
1477470804.008:   -854  84  11  707
1477470804.009:   -815  84  11  707
1477470804.025:   -772  84  11  707
1477470804.025:   -725  84  11  707
1477470804.025:   -677  84  11  707
1477470804.026:   -626  84  11  707
1477470804.027:   -568  84  11  707
1477470804.027:   -502  84  11  707
1477470804.028:   -429  84  11  707
1477470804.029:   -354  84  11  707
1477470804.029:   -276  84  11  707
1477470804.030:   -196  84  11  707
1477470804.035:   -116  84  11  707
1477470804.035:    -40  84  11  707
1477470804.047:     24  84  11  707
1477470804.048:     76  84  11  707
1477470804.048:    124  84  11  707
1477470804.048:    171  84  11  707
1477470804.050:    218  84  11  707
1477470804.051:    256  84  11  707
1477470804.052:    286  84  11  707
1477470804.052:    314  84  11  707
1477470804.052:    349  84  11  707
1477470804.057:    391  84  11  707
1477470804.057:    432  84  11  707
1477470804.060:    465  84  11  707
1477470804.060:    491  84  11  707
1477470804.063:    512  84  11  707
1477470804.075:    531  84  11  707
1477470804.075:    547  84  11  707
1477470804.075:    558  84  11  707
1477470804.075:    568  84  11  707
1477470804.076:    579  84  11  707
1477470804.076:    589  84  11  707
1477470804.077:    593  84  11  707
1477470804.096:    589  84  11  707
1477470804.101:    584  84  11  707
1477470804.101:    587  84  11  707
1477470804.102:    602  84  11  707
1477470804.103:    619  84  11  707
1477470804.103:    625  84  11  707
1477470804.103:    619  84  11  707
1477470804.103:    609  84  11  707
1477470804.103:    605  84  11  707
1477470804.103:    605  84  11  707
1477470804.103:    602  84  11  707
1477470804.104:    594  84  11  707
1477470804.104:    584  84  11  707
1477470804.104:    575  84  11  707
1477470804.105:    566  84  11  707
1477470804.107:    557  84  11  707
1477470804.111:    551  84  11  707
1477470804.121:    555  84  11  707
1477470804.121:    570  84  11  707
1477470804.121:    586  84  11  707
1477470804.121:    592  84  11  707
1477470804.121:    583  84  11  707
1477470804.122:    568  84  11  707
1477470804.125:    559  84  11  707
1477470804.126:    558  84  11  707
1477470804.127:    557  84  11  707
1477470804.129:    545  84  11  707
1477470804.130:    521  84  11  707
1477470804.132:    496  84  11  707
1477470804.135:    482  84  11  707
1477470804.141:    483  84  11  707
1477470804.142:    489  84  11  707
1477470804.142:    489  84  11  707
1477470804.144:    477  84  11  707
1477470804.144:    463  84  11  707
1477470804.148:    455  84  11  707
1477470804.149:    457  84  11  707
1477470804.157:    458  84  11  707
1477470804.158:    449  84  11  707
1477470804.158:    432  84  11  707
1477470804.159:    419  84  11  707
1477470804.159:    416  84  11  707
1477470804.160:    418  84  11  707
1477470804.162:    412  84  11  707
1477470804.167:    399  84  11  707
1477470804.184:    390  84  11  707
1477470804.184:    393  84  11  707
1477470804.184:    403  84  11  707
1477470804.185:    403  84  11  707
1477470804.185:    388  84  11  707
1477470804.185:    367  84  11  707
1477470804.186:    356  84  11  707
1477470804.187:    355  84  11  707
1477470804.187:    350  84  11  707
1477470804.188:    332  84  11  707
1477470804.189:    308  84  11  707
1477470804.189:    291  84  11  707
1477470804.190:    287  84  11  707
1477470804.194:    290  84  11  707
1477470804.205:    288  84  11  707
1477470804.206:    281  84  11  707
1477470804.206:    273  84  11  707
1477470804.206:    269  84  11  707
1477470804.206:    264  84  11  707
1477470804.206:    256  84  11  707
1477470804.209:    242  84  11  707
1477470804.209:    229  84  11  707
1477470804.211:    223  84  11  707
1477470804.212:    224  84  11  707
1477470804.213:    227  84  11  707
1477470804.219:    227  84  11  707
1477470804.220:    225  84  11  707
1477470804.222:    228  84  11  707
1477470804.223:    237  84  11  707
1477470804.227:    247  84  11  707
1477470804.228:    250  84  11  707
1477470804.229:    243  84  11  707
1477470804.231:    235  84  11  707
1477470804.232:    233  84  11  707
1477470804.236:    240  84  11  707
1477470804.236:    249  84  11  707
1477470804.249:    256  84  11  707
1477470804.249:    258  84  11  707
1477470804.250:    260  84  11  707
1477470804.250:    264  84  11  707
1477470804.250:    269  84  11  707
1477470804.250:    273  84  11  707
1477470804.250:    273  84  11  707
1477470804.250:    272  84  11  707
1477470804.254:    268  84  11  707
1477470804.255:    262  84  11  707
1477470804.256:    257  84  11  707
1477470804.258:    257  84  11  707
1477470804.263:    262  84  11  707
1477470804.263:    270  84  11  707
1477470804.282:    274  84  11  707
1477470804.358:    276  84  11  707
1477470804.364:    284  84  11  707
1477470804.364:    300  84  11  707
1477470804.364:    320  84  11  707
1477470804.365:    335  84  11  707
1477470804.365:    339  84  11  707
1477470804.365:    335  84  11  707
1477470804.365:    331  84  11  707
1477470804.365:    332  84  11  707
1477470804.365:    335  84  11  707
1477470804.366:    335  84  11  707
1477470804.366:    329  84  11  707
1477470804.366:    320  84  11  707
1477470804.366:    315  84  11  707
1477470804.366:    323  84  11  707
1477470804.367:    342  84  11  707
1477470804.367:    361  84  11  707
1477470804.367:    367  84  11  707
1477470804.367:    362  84  11  707
1477470804.367:    356  84  11  707
1477470804.367:    354  84  11  707
1477470804.368:    353  84  11  707
1477470804.368:    342  84  11  707
1477470804.368:    320  84  11  707
1477470804.369:    294  84  11  707
1477470804.369:    272  84  11  707
1477470804.369:    248  84  11  707
1477470804.369:    218  84  11  707
1477470804.370:    191  84  11  707
1477470804.370:    181  84  11  707
1477470804.370:    188  84  11  707
1477470804.370:    193  84  11  707
1477470804.371:    177  84  11  707
1477470804.371:    141  84  11  707
1477470804.371:    112  84  11  707
1477470804.371:    107  84  11  707
1477470804.371:    117  84  11  707
1477470804.372:    114  84  11  707
1477470804.372:     81  84  11  707
1477470804.372:     29  84  11  707
1477470804.372:    -12  84  11  707
1477470804.373:    -26  84  11  707
1477470804.373:    -21  84  11  707
1477470804.373:    -17  84  11  707
1477470804.373:    -22  84  11  707
1477470804.373:    -22  84  11  707
1477470804.374:      2  84  11  707
1477470804.374:     50  84  11  707
1477470804.374:    102  84  11  707
1477470804.374:    135  84  11  707
1477470804.375:    149  84  11  707
1477470804.375:    162  84  11  707
1477470804.375:    185  84  11  707
1477470804.375:    211  84  11  707
1477470804.375:    224  84  11  707
1477470804.376:    219  84  11  707
1477470804.376:    208  84  11  707
1477470804.377:    208  84  11  707
1477470804.382:    223  84  11  707
1477470804.392:    243  84  11  707
1477470804.392:    254  84  11  707
1477470804.392:    254  84  11  707
1477470804.393:    252  84  11  707
1477470804.393:    261  84  11  707
1477470804.393:    281  84  11  707
1477470804.394:    298  84  11  707
1477470804.396:    301  84  11  707
1477470804.397:    289  84  11  707
1477470804.399:    272  84  11  707
1477470804.411:    256  84  11  707
1477470804.436:    240  84  11  707
1477470804.448:    219  84  11  707
1477470804.449:    194  84  11  707
1477470804.449:    173  84  11  707
1477470804.449:    160  84  11  707
1477470804.449:    155  84  11  707
1477470804.449:    162  84  11  707
1477470804.449:    192  84  11  707
1477470804.450:    250  84  11  707
1477470804.450:    301  84  11  707
1477470804.450:    280  84  11  707
1477470804.450:    145  84  11  707
1477470804.450:    -68  84  11  707
1477470804.450:   -288  84  11  707
1477470804.451:   -499  84  11  707
1477470804.457:   -782  84  11  707
1477470804.457:  -1237  84  11  707
1477470804.457:  -1859  84  11  707
1477470804.457:  -2498  84  11  707
1477470804.458:  -2968  84  11  707
1477470804.458:  -3196  84  11  707
1477470804.458:  -3238  84  11  707
1477470804.458:  -3164  84  11  707
1477470804.458:  -2940  84  11  707
1477470804.458:  -2451  84  11  707
1477470804.458:  -1628  84  11  707
1477470804.458:   -547  84  11  707
1477470804.459:    598  84  11  707
1477470804.459:   1611  84  11  707
1477470804.461:   2386  84  11  707
1477470804.462:   2912  84  11  707
1477470804.474:   3218  84  11  707
1477470804.474:   3327  84  11  707
1477470804.475:   3238  84  11  707
1477470804.475:   2953  84  11  707
1477470804.475:   2511  84  11  707
1477470804.475:   1992  84  11  707
1477470804.476:   1503  84  11  707
1477470804.478:   1126  84  11  707
1477470804.480:    888  84  11  707
1477470804.482:    762  84  11  707
1477470804.488:    701  84  11  707
1477470804.492:    669  84  11  707
1477470804.495:    650  84  11  707
1477470804.495:    640  84  11  707
1477470804.495:    627  84  11  707
1477470804.495:    592  84  11  707
1477470804.500:    530  84  11  707
1477470804.500:    448  84  11  707
1477470804.501:    365  84  11  707
1477470804.502:    304  84  11  707
1477470804.503:    274  84  11  707
1477470804.505:    270  84  11  707
1477470804.507:    281  84  11  707
1477470804.510:    300  84  11  707
1477470804.522:    320  84  11  707
1477470804.522:    328  84  11  707
1477470804.522:    313  84  11  707
1477470804.522:    269  84  11  707
1477470804.523:    208  84  11  707
1477470804.523:    154  84  11  707
1477470804.523:    124  84  11  707
1477470804.528:    123  84  11  707
1477470804.528:    137  84  11  707
1477470804.529:    151  84  11  707
1477470804.531:    159  84  11  707
1477470804.532:    162  84  11  707
1477470804.535:    161  84  11  707
1477470804.540:    153  84  11  707
1477470804.542:    136  84  11  707
1477470804.542:    115  84  11  707
1477470804.557:    100  84  11  707
1477470804.557:     97  84  11  707
1477470804.557:    104  84  11  707
1477470804.557:    112  84  11  707
1477470804.557:    114  84  11  707
1477470804.557:    107  84  11  707
1477470804.558:     95  84  11  707
1477470804.558:     82  84  11  707
1477470804.559:     67  84  11  707
1477470804.561:     51  84  11  707
1477470804.562:     34  84  11  707
1477470804.566:     16  84  11  707
1477470804.570:      0  84  11  707
1477470804.572:     -9  84  11  707
1477470804.580:    -13  84  11  707
1477470804.580:    -17  84  11  707
1477470804.581:    -24  84  11  707
1477470804.581:    -36  84  11  707
1477470804.582:    -47  84  11  707
1477470804.583:    -51  84  11  707
1477470804.584:    -51  84  11  707
1477470804.585:    -54  84  11  707
1477470804.586:    -67  84  11  707
1477470804.587:    -85  84  11  707
1477470804.590:   -103  84  11  707
1477470804.593:   -119  84  11  707
1477470804.593:   -135  84  11  707
1477470804.596:   -156  84  11  707
1477470804.597:   -178  84  11  707
1477470804.602:   -197  84  11  707
1477470804.602:   -216  84  11  707
1477470804.603:   -243  84  11  707
1477470804.605:   -280  84  11  707
1477470804.609:   -314  84  11  707
1477470804.626:   -335  84  11  707
1477470804.627:   -345  84  11  707
1477470804.627:   -356  84  11  707
1477470804.627:   -378  84  11  707
1477470804.628:   -407  84  11  707
1477470804.630:   -435  84  11  707
1477470804.633:   -456  84  11  707
1477470804.634:   -474  84  11  707
1477470804.647:   -492  84  11  707
1477470804.647:   -515  84  11  707
1477470804.647:   -542  84  11  707
1477470804.647:   -577  84  11  707
1477470804.648:   -618  84  11  707
1477470804.648:   -659  84  11  707
1477470804.649:   -696  84  11  707
1477470804.649:   -731  84  11  707
1477470804.649:   -771  84  11  707
1477470804.650:   -817  84  11  707
1477470804.650:   -865  84  11  707
1477470804.650:   -907  84  11  707
1477470804.651:   -942  84  11  707
1477470804.651:   -975  84  11  707
1477470804.652:  -1010  84  11  707
1477470804.657:  -1047  84  11  707
1477470804.658:  -1087  84  11  707
1477470804.659:  -1127  84  11  707
1477470804.660:  -1163  84  11  707
1477470804.665:  -1190  84  11  707
1477470804.666:  -1209  84  11  707
1477470804.667:  -1229  84  11  707
1477470804.671:  -1254  84  11  707
1477470804.671:  -1278  84  11  707
1477470804.691:  -1289  84  11  707
1477470804.691:  -1286  84  11  707
1477470804.691:  -1280  84  11  707
1477470804.692:  -1281  84  11  707
1477470804.692:  -1286  83  11  714
1477470804.692:  -1282  83  11  714
1477470804.692:  -1265  83  11  714
1477470804.693:  -1245  83  11  714
1477470804.693:  -1233  83  11  714
1477470804.693:  -1226  83  11  714
1477470804.693:  -1207  83  11  714
1477470804.694:  -1169  83  11  714
1477470804.697:  -1121  83  11  714
1477470804.700:  -1077  83  11  714
1477470804.702:  -1038  83  11  714
1477470804.702:   -992  83  11  714
1477470804.704:   -929  83  11  714
1477470804.706:   -851  83  11  714
1477470804.709:   -773  83  11  714
1477470804.712:   -701  83  11  714
1477470804.724:   -632  83  11  714
1477470804.724:   -558  83  11  714
1477470804.724:   -477  83  11  714
1477470804.726:   -397  83  11  714
1477470804.727:   -325  83  11  714
1477470804.727:   -258  83  11  714
1477470804.727:   -192  83  11  714
1477470804.727:   -128  83  11  714
1477470804.729:    -72  83  11  714
1477470804.729:    -29  83  11  714
1477470804.733:     12  83  11  714
1477470804.733:     62  83  11  714
1477470804.743:    121  83  11  714
1477470804.744:    178  83  11  714
1477470804.744:    219  83  11  714
1477470804.745:    248  83  11  714
1477470804.746:    277  83  11  714
1477470804.746:    317  83  11  714
1477470804.747:    363  83  11  714
1477470804.749:    402  83  11  714
1477470804.751:    429  83  11  714
1477470804.752:    447  83  11  714
1477470804.764:    466  83  11  714
