timestamp: ADC HeartRate4sAverage HeartRate30sAverage HRV8sAverage
1477468320.630:    257  92  12  656
1477468320.630:    252  92  12  656
1477468320.630:    234  92  12  656
1477468320.631:    198  92  12  656
1477468320.631:    159  92  12  656
1477468320.631:    138  92  12  656
1477468320.631:    140  92  12  656
1477468320.631:    150  92  12  656
1477468320.631:    155  92  12  656
1477468320.633:    161  92  12  656
1477468320.643:    182  92  12  656
1477468320.643:    213  92  12  656
1477468320.643:    230  92  12  656
1477468320.643:    229  92  12  656
1477468320.643:    234  92  12  656
1477468320.644:    268  92  12  656
1477468320.646:    319  92  12  656
1477468320.647:    342  92  12  656
1477468320.648:    317  92  12  656
1477468320.649:    277  92  12  656
1477468320.655:    275  92  12  656
1477468320.656:    319  92  12  656
1477468320.658:    357  92  12  656
1477468320.661:    339  92  12  656
1477468320.675:    271  92  12  656
1477468320.676:    209  92  12  656
1477468320.678:    192  92  12  656
1477468320.678:    199  92  12  656
1477468320.680:    183  92  12  656
1477468320.682:    119  92  12  656
1477468320.683:     34  92  12  656
1477468320.683:    -24  92  12  656
1477468320.684:    -32  92  12  656
1477468320.684:    -10  92  12  656
1477468320.684:      7  92  12  656
1477468320.685:      1  92  12  656
1477468320.698:    -24  92  12  656
1477468320.699:    -46  92  12  656
1477468320.700:    -53  92  12  656
1477468320.701:    -44  92  12  656
1477468320.703:    -38  92  12  656
1477468320.704:    -50  92  12  656
1477468320.704:    -83  92  12  656
1477468320.705:   -119  92  12  656
1477468320.706:   -138  92  12  656
1477468320.707:   -129  92  12  656
1477468320.719:    -95  92  12  656
1477468320.720:    -51  92  12  656
1477468320.721:     -4  92  12  656
1477468320.721:     49  92  12  656
1477468320.722:    112  92  12  656
1477468320.723:    180  92  12  656
1477468320.723:    232  92  12  656
1477468320.724:    252  92  12  656
1477468320.725:    242  92  12  656
1477468320.725:    220  92  12  656
1477468320.736:    202  92  12  656
1477468320.737:    183  92  12  656
1477468320.738:    145  92  12  656
1477468320.738:     89  92  12  656
1477468320.739:     36  92  12  656
1477468320.740:     10  92  12  656
1477468320.741:      9  92  12  656
1477468320.741:     13  92  12  656
1477468320.743:     19  92  12  656
1477468320.743:     49  92  12  656
1477468320.754:    116  92  12  656
1477468320.755:    193  92  12  656
1477468320.756:    231  92  12  656
1477468320.757:    206  92  12  656
1477468320.758:    152  92  12  656
1477468320.824:    128  92  12  656
1477468320.830:    160  92  12  656
1477468320.830:    206  92  12  656
1477468320.831:    207  92  12  656
1477468320.831:    138  92  12  656
1477468320.831:     38  92  12  656
1477468320.831:    -25  92  12  656
1477468320.831:    -17  92  12  656
1477468320.831:     38  92  12  656
1477468320.831:     88  92  12  656
1477468320.832:     99  92  12  656
1477468320.832:     76  92  12  656
1477468320.832:     53  92  12  656
1477468320.832:     54  92  12  656
1477468320.833:     81  92  12  656
1477468320.833:    125  92  12  656
1477468320.833:    168  92  12  656
1477468320.833:    188  92  12  656
1477468320.833:    165  92  12  656
1477468320.833:     88  92  12  656
1477468320.834:    -33  92  12  656
1477468320.834:   -168  92  12  656
1477468320.834:   -299  92  12  656
1477468320.835:   -420  92  12  656
1477468320.835:   -540  92  12  656
1477468320.835:   -678  92  12  656
1477468320.835:   -838  92  12  656
1477468320.835:   -988  92  12  656
1477468320.835:  -1051  92  12  656
1477468320.836:   -967  92  12  656
1477468320.836:   -762  92  12  656
1477468320.836:   -562  92  12  656
1477468320.836:   -478  92  12  656
1477468320.836:   -487  92  12  656
1477468320.836:   -436  92  12  656
1477468320.836:   -186  92  12  656
1477468320.837:    244  92  12  656
1477468320.837:    690  92  12  656
1477468320.837:    999  92  12  656
1477468320.837:   1155  92  12  656
1477468320.838:   1261  92  12  656
1477468320.838:   1418  92  12  656
1477468320.838:   1620  92  12  656
1477468320.838:   1764  92  12  656
1477468320.839:   1740  92  12  656
1477468320.841:   1517  92  12  656
1477468320.843:   1161  92  12  656
1477468320.845:    788  92  12  656
1477468320.847:    476  92  12  656
1477468320.852:    230  92  12  656
1477468320.853:      9  92  12  656
1477468320.853:   -204  92  12  656
1477468320.854:   -379  92  12  656
1477468320.855:   -474  92  12  656
1477468320.862:   -486  92  12  656
1477468320.887:   -442  92  12  656
1477468320.888:   -372  92  12  656
1477468320.889:   -285  92  12  656
1477468320.890:   -201  92  12  656
1477468320.891:   -146  92  12  656
1477468320.892:   -137  92  12  656
1477468320.892:   -155  92  12  656
1477468320.893:   -160  92  12  656
1477468320.893:   -134  92  12  656
1477468320.893:    -94  92  12  656
1477468320.893:    -66  92  12  656
1477468320.894:    -52  92  12  656
1477468320.894:    -42  92  12  656
1477468320.894:    -33  92  12  656
1477468320.895:    -44  92  12  656
1477468320.895:    -86  92  12  656
1477468320.896:   -143  92  12  656
1477468320.896:   -184  92  12  656
1477468320.896:   -185  92  12  656
1477468320.897:   -153  92  12  656
1477468320.901:   -112  92  12  656
1477468320.902:    -94  92  12  656
1477468320.923:   -112  92  12  656
1477468320.923:   -149  92  12  656
1477468320.923:   -170  92  12  656
1477468320.923:   -149  92  12  656
1477468320.923:   -101  92  12  656
1477468320.924:    -69  92  12  656
1477468320.924:    -83  92  12  656
1477468320.924:   -127  92  12  656
1477468320.924:   -155  92  12  656
1477468320.924:   -151  92  12  656
1477468320.926:   -144  92  12  656
1477468320.927:   -178  92  12  656
1477468320.928:   -253  92  12  656
1477468320.929:   -331  92  12  656
1477468320.935:   -373  92  12  656
1477468320.935:   -385  92  12  656
1477468320.935:   -391  92  12  656
1477468320.936:   -397  92  12  656
1477468320.946:   -386  92  12  656
1477468320.946:   -362  92  12  656
1477468320.946:   -363  92  12  656
1477468320.946:   -419  92  12  656
1477468320.948:   -507  92  12  656
1477468320.949:   -563  92  12  656
1477468320.958:   -552  92  12  656
1477468320.959:   -513  92  12  656
1477468320.964:   -511  92  12  656
1477468320.965:   -567  92  12  656
1477468320.965:   -639  92  12  656
1477468320.965:   -673  92  12  656
1477468320.965:   -656  92  12  656
1477468320.967:   -625  92  12  656
1477468320.968:   -622  92  12  656
1477468320.969:   -662  92  12  656
1477468320.974:   -731  92  12  656
1477468320.982:   -808  92  12  656
1477468320.982:   -874  92  12  656
1477468320.982:   -926  92  12  656
1477468320.983:   -967  92  12  656
1477468320.983:  -1007  92  12  656
1477468320.984:  -1049  92  12  656
1477468320.985:  -1083  92  12  656
1477468321.010:  -1101  92  12  656
1477468321.011:  -1113  92  12  656
1477468321.012:  -1139  92  12  656
1477468321.012:  -1186  92  12  656
1477468321.013:  -1236  92  12  656
1477468321.014:  -1271  92  12  656
1477468321.014:  -1296  92  12  656
1477468321.028:  -1331  92  12  656
1477468321.029:  -1375  92  12  656
1477468321.033:  -1405  92  12  656
1477468321.044:  -1402  92  12  656
1477468321.046:  -1377  92  12  656
1477468321.046:  -1360  92  12  656
1477468321.047:  -1356  92  12  656
1477468321.048:  -1339  92  12  656
1477468321.048:  -1286  92  12  656
1477468321.049:  -1215  92  12  656
1477468321.050:  -1165  92  12  656
1477468321.050:  -1154  92  12  656
1477468321.051:  -1158  92  12  656
1477468321.052:  -1147  92  12  656
1477468321.053:  -1122  92  12  656
1477468321.053:  -1103  92  12  656
1477468321.053:  -1099  92  12  656
1477468321.053:  -1098  92  12  656
1477468321.053:  -1082  92  12  656
1477468321.054:  -1041  92  12  656
1477468321.054:   -970  92  12  656
1477468321.066:   -867  92  12  656
1477468321.066:   -741  92  12  656
1477468321.066:   -617  92  12  656
1477468321.067:   -519  92  12  656
1477468321.067:   -441  92  12  656
1477468321.067:   -357  92  12  656
1477468321.068:   -253  92  12  656
1477468321.068:   -152  92  12  656
1477468321.072:    -89  92  12  656
1477468321.072:    -67  92  12  656
1477468321.074:    -57  92  12  656
1477468321.074:    -28  92  12  656
1477468321.085:     23  92  12  656
1477468321.086:     72  92  12  656
1477468321.087:    104  92  12  656
1477468321.087:    121  92  12  656
1477468321.097:    145  92  12  656
1477468321.098:    197  92  12  656
1477468321.104:    283  92  12  656
1477468321.105:    384  92  12  656
1477468321.106:    471  92  12  656
1477468321.106:    527  92  12  656
1477468321.107:    561  92  12  656
1477468321.108:    591  92  12  656
1477468321.109:    626  92  12  656
1477468321.109:    659  92  12  656
1477468321.110:    685  92  12  656
1477468321.112:    709  92  12  656
1477468321.113:    728  92  12  656
1477468321.122:    719  92  12  656
1477468321.123:    662  92  12  656
1477468321.125:    570  92  12  656
1477468321.125:    495  92  12  656
1477468321.126:    484  92  12  656
1477468321.128:    527  92  12  656
1477468321.129:    574  92  12  656
1477468321.132:    577  91  12  657
1477468321.132:    538  91  12  657
1477468321.132:    506  91  12  657
1477468321.133:    521  91  12  657
1477468321.133:    582  91  12  657
1477468321.134:    643  91  12  657
1477468321.134:    656  91  12  657
1477468321.138:    610  91  12  657
1477468321.139:    537  91  12  657
1477468321.140:    477  91  12  657
1477468321.145:    447  91  12  657
1477468321.156:    437  91  12  657
1477468321.165:    430  91  12  657
1477468321.165:    425  91  12  657
1477468321.165:    429  91  12  657
1477468321.165:    441  91  12  657
1477468321.165:    445  91  12  657
1477468321.166:    430  91  12  657
1477468321.166:    404  91  12  657
1477468321.166:    394  91  12  657
1477468321.166:    408  91  12  657
1477468321.166:    426  91  12  657
1477468321.166:    416  91  12  657
1477468321.169:    371  91  12  657
1477468321.169:    317  91  12  657
1477468321.170:    294  91  12  657
1477468321.170:    313  91  12  657
1477468321.170:    354  91  12  657
1477468321.171:    395  91  12  657
1477468321.172:    432  91  12  657
1477468321.172:    476  91  12  657
1477468321.173:    515  91  12  657
1477468321.174:    518  91  12  657
1477468321.177:    469  91  12  657
1477468321.195:    408  91  12  657
1477468321.196:    387  91  12  657
1477468321.197:    406  91  12  657
1477468321.198:    407  91  12  657
1477468321.199:    338  91  12  657
1477468321.201:    226  91  12  657
1477468321.202:    158  91  12  657
1477468321.203:    184  91  12  657
1477468321.203:    266  91  12  657
1477468321.204:    318  91  12  657
1477468321.205:    303  91  12  657
1477468321.206:    264  91  12  657
1477468321.207:    262  91  12  657
1477468321.207:    302  91  12  657
1477468321.209:    334  91  12  657
1477468321.210:    316  91  12  657
1477468321.228:    259  91  12  657
1477468321.229:    220  91  12  657
1477468321.230:    228  91  12  657
1477468321.230:    258  91  12  657
1477468321.233:    269  91  12  657
1477468321.237:    240  91  12  657
1477468321.240:    205  91  12  657
1477468321.248:    209  91  12  657
1477468321.249:    259  91  12  657
1477468321.249:    312  91  12  657
1477468321.250:    318  91  12  657
1477468321.250:    277  91  12  657
1477468321.254:    230  91  12  657
1477468321.255:    216  91  12  657
1477468321.256:    235  91  12  657
1477468321.256:    260  91  12  657
1477468321.257:    274  91  12  657
1477468321.258:    287  91  12  657
1477468321.258:    308  91  12  657
1477468321.261:    332  91  12  657
1477468321.270:    346  91  12  657
1477468321.270:    353  91  12  657
1477468321.271:    372  91  12  657
1477468321.271:    405  91  12  657
1477468321.271:    422  91  12  657
1477468321.271:    401  91  12  657
1477468321.271:    351  91  12  657
1477468321.271:    315  91  12  657
1477468321.271:    315  91  12  657
1477468321.271:    329  91  12  657
1477468321.272:    319  91  12  657
1477468321.275:    287  91  12  657
1477468321.276:    269  91  12  657
1477468321.279:    291  91  12  657
1477468321.282:    329  91  12  657
1477468321.282:    341  91  12  657
1477468321.292:    319  91  12  657
1477468321.292:    303  91  12  657
1477468321.293:    325  91  12  657
1477468321.293:    376  91  12  657
1477468321.293:    414  91  12  657
1477468321.293:    410  91  12  657
1477468321.293:    380  91  12  657
1477468321.298:    361  91  12  657
1477468321.308:    376  91  12  657
1477468321.309:    427  91  12  657
1477468321.312:    484  91  12  657
1477468321.312:    510  91  12  657
1477468321.312:    483  91  12  657
1477468321.313:    427  91  12  657
1477468321.315:    400  91  12  657
1477468321.315:    434  91  12  657
1477468321.317:    499  91  12  657
1477468321.318:    523  91  12  657
1477468321.320:    473  91  12  657
1477468321.320:    389  91  12  657
1477468321.322:    334  91  12  657
1477468321.327:    322  91  12  657
1477468321.345:    307  91  12  657
1477468321.345:    250  91  12  657
1477468321.345:    168  91  12  657
1477468321.345:    111  91  12  657
1477468321.346:     94  91  12  657
1477468321.346:     91  91  12  657
1477468321.346:     78  91  12  657
1477468321.346:     68  91  12  657
1477468321.346:     89  91  12  657
1477468321.346:    142  91  12  657
1477468321.346:    187  91  12  657
1477468321.347:    191  91  12  657
1477468321.349:    159  91  12  657
1477468321.349:    131  91  12  657
1477468321.351:    142  91  12  657
1477468321.354:    189  91  12  657
1477468321.355:    232  91  12  657
1477468321.356:    231  91  12  657
1477468321.359:    191  91  12  657
1477468321.360:    158  91  12  657
1477468321.365:    183  91  12  657
1477468321.365:    266  91  12  657
1477468321.382:    353  91  12  657
1477468321.382:    386  91  12  657
1477468321.383:    362  91  12  657
1477468321.383:    324  91  12  657
1477468321.384:    311  91  12  657
1477468321.385:    319  91  12  657
1477468321.386:    323  91  12  657
1477468321.388:    315  91  12  657
1477468321.388:    307  91  12  657
1477468321.389:    305  91  12  657
1477468321.389:    290  91  12  657
1477468321.390:    251  91  12  657
1477468321.403:    214  91  12  657
1477468321.404:    226  91  12  657
1477468321.405:    294  91  12  657
1477468321.405:    365  91  12  657
1477468321.406:    380  91  12  657
1477468321.407:    331  91  12  657
1477468321.407:    276  91  12  657
1477468321.408:    273  91  12  657
1477468321.408:    319  91  12  657
1477468321.409:    362  91  12  657
1477468321.420:    354  91  12  657
1477468321.420:    300  91  12  657
1477468321.421:    236  91  12  657
1477468321.421:    193  91  12  657
1477468321.422:    180  91  12  657
1477468321.423:    186  91  12  657
1477468321.424:    214  91  12  657
1477468321.426:    263  91  12  657
1477468321.438:    317  91  12  657
1477468321.506:    351  91  12  657
1477468321.513:    345  91  12  657
1477468321.513:    307  91  12  657
1477468321.513:    268  91  12  657
1477468321.514:    256  91  12  657
1477468321.514:    269  91  12  657
1477468321.514:    267  91  12  657
1477468321.514:    212  91  12  657
1477468321.514:     85  91  12  657
1477468321.514:    -97  91  12  657
1477468321.514:   -289  91  12  657
1477468321.515:   -439  91  12  657
1477468321.515:   -538  91  12  657
1477468321.515:   -627  91  12  657
1477468321.515:   -766  91  12  657
1477468321.515:   -963  91  12  657
1477468321.515:  -1129  91  12  657
1477468321.515:  -1145  91  12  657
1477468321.516:   -972  91  12  657
1477468321.516:   -706  91  12  657
1477468321.516:   -493  91  12  657
1477468321.516:   -392  91  12  657
1477468321.516:   -308  91  12  657
1477468321.516:    -90  91  12  657
1477468321.516:    312  91  12  657
1477468321.517:    792  91  12  657
1477468321.517:   1188  91  12  657
1477468321.517:   1415  91  12  657
1477468321.517:   1514  91  12  657
1477468321.517:   1570  91  12  657
1477468321.518:   1626  91  12  657
1477468321.519:   1659  91  12  657
1477468321.520:   1635  91  12  657
1477468321.520:   1544  91  12  657
1477468321.520:   1386  91  12  657
1477468321.520:   1157  91  12  657
1477468321.520:    862  91  12  657
1477468321.521:    541  91  12  657
1477468321.521:    270  91  12  657
1477468321.522:     97  91  12  657
1477468321.522:     -1  91  12  657
1477468321.523:    -95  91  12  657
1477468321.523:   -227  91  12  657
1477468321.523:   -362  91  12  657
1477468321.523:   -429  91  12  657
1477468321.523:   -378  91  12  657
1477468321.523:   -239  91  12  657
1477468321.525:    -88  91  12  657
1477468321.525:      3  91  12  657
1477468321.526:     22  91  12  657
1477468321.527:      4  91  12  657
1477468321.533:     -1  91  12  657
1477468321.538:     33  91  12  657
1477468321.545:     90  91  12  657
1477468321.545:    135  91  12  657
1477468321.546:    145  91  12  657
1477468321.546:    125  91  12  657
1477468321.546:     86  91  12  657
1477468321.546:     33  91  12  657
1477468321.546:    -23  91  12  657
1477468321.551:    -56  91  12  657
1477468321.552:    -35  91  12  657
1477468321.557:     31  91  12  657
1477468321.571:     87  91  12  657
1477468321.571:     91  91  12  657
1477468321.571:     66  91  12  657
1477468321.572:     70  91  12  657
1477468321.572:    121  91  12  657
1477468321.572:    168  91  12  657
1477468321.572:    146  91  12  657
1477468321.572:     65  91  12  657
1477468321.572:      1  91  12  657
1477468321.575:     17  91  12  657
1477468321.576:     81  91  12  657
1477468321.577:    107  91  12  657
1477468321.578:     40  91  12  657
1477468321.580:    -79  91  12  657
1477468321.581:   -159  91  12  657
1477468321.586:   -141  91  12  657
1477468321.587:    -41  91  12  657
1477468321.593:     64  91  12  657
1477468321.604:    112  91  12  657
1477468321.605:     93  91  12  657
1477468321.606:     44  91  12  657
1477468321.607:     11  91  12  657
1477468321.607:      2  91  12  657
1477468321.609:     -8  91  12  657
1477468321.610:    -45  91  12  657
1477468321.613:   -104  91  12  657
1477468321.621:   -159  91  12  657
1477468321.622:   -191  91  12  657
1477468321.622:   -203  91  12  657
1477468321.622:   -210  91  12  657
1477468321.622:   -221  91  12  657
1477468321.622:   -230  91  12  657
1477468321.622:   -237  91  12  657
1477468321.623:   -254  91  12  657
1477468321.623:   -295  91  12  657
1477468321.623:   -352  91  12  657
1477468321.624:   -408  91  12  657
1477468321.628:   -455  91  12  657
1477468321.630:   -494  91  12  657
1477468321.631:   -537  91  12  657
1477468321.640:   -580  91  12  657
1477468321.640:   -619  91  12  657
1477468321.640:   -647  91  12  657
1477468321.641:   -665  91  12  657
1477468321.641:   -672  91  12  657
1477468321.641:   -666  91  12  657
1477468321.646:   -661  91  12  657
1477468321.646:   -679  91  12  657
1477468321.652:   -732  91  12  657
1477468321.652:   -801  91  12  657
1477468321.659:   -844  91  12  657
1477468321.660:   -839  91  12  657
1477468321.660:   -815  91  12  657
1477468321.660:   -819  91  12  657
1477468321.660:   -857  91  12  657
1477468321.660:   -884  91  12  657
1477468321.661:   -859  91  12  657
1477468321.666:   -794  91  12  657
1477468321.666:   -747  91  12  657
1477468321.669:   -742  91  12  657
1477468321.677:   -748  91  12  657
1477468321.677:   -722  91  12  657
1477468321.703:   -669  91  12  657
1477468321.705:   -631  91  12  657
1477468321.714:   -629  91  12  657
1477468321.714:   -629  91  12  657
1477468321.714:   -592  91  12  657
1477468321.715:   -526  91  12  657
1477468321.715:   -478  91  12  657
1477468321.715:   -469  91  12  657
1477468321.715:   -469  91  12  657
1477468321.715:   -435  91  12  657
1477468321.715:   -363  91  12  657
1477468321.716:   -291  91  12  657
1477468321.716:   -240  91  12  657
1477468321.716:   -195  91  12  657
1477468321.716:   -126  91  12  657
1477468321.716:    -39  91  12  657
1477468321.716:     38  91  12  657
1477468321.720:     90  91  12  657
1477468321.721:    141  91  12  657
1477468321.726:    221  91  12  657
1477468321.736:    322  91  12  657
1477468321.737:    410  91  12  657
1477468321.737:    459  91  12  657
1477468321.737:    487  91  12  657
1477468321.737:    523  91  12  657
1477468321.737:    573  91  12  657
1477468321.737:    619  91  12  657
1477468321.737:    643  91  12  657
1477468321.737:    663  91  12  657
1477468321.738:    701  91  12  657
1477468321.738:    760  91  12  657
1477468321.739:    818  91  12  657
1477468321.742:    849  91  12  657
1477468321.747:    856  93  12  649
1477468321.756:    858  93  12  649
1477468321.757:    870  93  12  649
1477468321.758:    887  93  12  649
1477468321.758:    894  93  12  649
1477468321.759:    881  93  12  649
1477468321.760:    850  93  12  649
1477468321.762:    809  93  12  649
1477468321.763:    775  93  12  649
1477468321.764:    758  93  12  649
1477468321.766:    756  93  12  649
1477468321.776:    762  93  12  649
1477468321.776:    771  93  12  649
1477468321.777:    783  93  12  649
1477468321.777:    794  93  12  649
1477468321.779:    799  93  12  649
1477468321.780:    791  93  12  649
1477468321.781:    774  93  12  649
1477468321.781:    760  93  12  649
1477468321.782:    766  93  12  649
1477468321.783:    792  93  12  649
1477468321.784:    820  93  12  649
1477468321.784:    829  93  12  649
1477468321.795:    810  93  12  649
1477468321.796:    770  93  12  649
1477468321.797:    730  93  12  649
1477468321.797:    708  93  12  649
1477468321.797:    704  93  12  649
1477468321.798:    708  93  12  649
1477468321.798:    704  93  12  649
1477468321.800:    680  93  12  649
1477468321.801:    634  93  12  649
1477468321.802:    583  93  12  649
1477468321.808:    551  93  12  649
1477468321.809:    552  93  12  649
1477468321.815:    575  93  12  649
1477468321.815:    585  93  12  649
1477468321.815:    563  93  12  649
1477468321.815:    525  93  12  649
1477468321.822:    506  93  12  649
1477468321.822:    516  93  12  649
1477468321.823:    525  93  12  649
1477468321.825:    512  93  12  649
1477468321.830:    489  93  12  649
1477468321.833:    491  93  12  649
1477468321.833:    514  93  12  649
1477468321.833:    515  93  12  649
1477468321.855:    460  93  12  649
1477468321.855:    374  93  12  649
1477468321.855:    319  93  12  649
1477468321.856:    322  93  12  649
1477468321.856:    346  93  12  649
1477468321.856:    334  93  12  649
1477468321.856:    276  93  12  649
1477468321.857:    219  93  12  649
1477468321.857:    213  93  12  649
1477468321.857:    257  93  12  649
1477468321.857:    307  93  12  649
1477468321.857:    326  93  12  649
1477468321.857:    319  93  12  649
1477468321.859:    315  93  12  649
1477468321.859:    328  93  12  649
1477468321.861:    343  93  12  649
1477468321.863:    339  93  12  649
1477468321.865:    314  93  12  649
1477468321.876:    284  93  12  649
1477468321.876:    268  93  12  649
1477468321.877:    261  93  12  649
1477468321.877:    253  93  12  649
1477468321.878:    245  93  12  649
1477468321.878:    248  93  12  649
1477468321.882:    267  93  12  649
1477468321.882:    294  93  12  649
1477468321.887:    314  93  12  649
1477468321.889:    322  93  12  649
1477468321.894:    326  93  12  649
1477468321.894:    332  93  12  649
1477468321.894:    337  93  12  649
1477468321.895:    332  93  12  649
1477468321.896:    320  93  12  649
1477468321.897:    312  93  12  649
1477468321.901:    313  93  12  649
1477468321.901:    317  93  12  649
1477468321.912:    319  93  12  649
1477468321.912:    320  93  12  649
1477468321.912:    329  93  12  649
1477468321.912:    341  93  12  649
1477468321.912:    340  93  12  649
1477468321.916:    324  93  12  649
1477468321.916:    310  93  12  649
1477468321.918:    316  93  12  649
1477468321.919:    329  93  12  649
1477468321.921:    314  93  12  649
1477468321.922:    259  93  12  649
1477468321.924:    206  93  12  649
1477468321.926:    213  93  12  649
1477468321.929:    287  93  12  649
1477468321.931:    371  93  12  649
1477468321.935:    402  93  12  649
1477468321.950:    380  93  12  649
1477468321.950:    371  93  12  649
1477468321.951:    427  93  12  649
1477468321.951:    522  93  12  649
1477468321.951:    580  93  12  649
1477468321.951:    558  93  12  649
1477468321.952:    485  93  12  649
1477468321.952:    431  93  12  649
1477468321.952:    422  93  12  649
1477468321.953:    422  93  12  649
1477468321.955:    384  93  12  649
1477468321.956:    315  93  12  649
1477468321.958:    267  93  12  649
1477468321.965:    277  93  12  649
1477468321.971:    320  93  12  649
1477468321.971:    340  93  12  649
1477468321.989:    311  93  12  649
1477468321.992:    270  93  12  649
1477468321.992:    270  93  12  649
1477468321.996:    320  93  12  649
1477468322.007:    370  93  12  649
1477468322.007:    368  93  12  649
1477468322.007:    308  93  12  649
1477468322.007:    235  93  12  649
1477468322.007:    190  93  12  649
1477468322.008:    178  93  12  649
1477468322.008:    177  93  12  649
1477468322.008:    172  93  12  649
1477468322.008:    170  93  12  649
1477468322.008:    182  93  12  649
1477468322.008:    201  93  12  649
1477468322.008:    200  93  12  649
1477468322.009:    164  93  12  649
1477468322.009:    115  93  12  649
1477468322.009:     88  93  12  649
1477468322.011:     95  93  12  649
1477468322.013:    109  93  12  649
1477468322.020:     94  93  12  649
1477468322.022:     45  93  12  649
1477468322.022:     -3  93  12  649
1477468322.022:     -2  93  12  649
1477468322.023:     68  93  12  649
1477468322.023:    185  93  12  649
1477468322.023:    304  93  12  649
1477468322.023:    375  93  12  649
1477468322.025:    375  93  12  649
1477468322.027:    320  93  12  649
1477468322.028:    259  93  12  649
1477468322.044:    239  93  12  649
1477468322.141:    255  93  12  649
1477468322.146:    253  93  12  649
1477468322.146:    184  93  12  649
1477468322.146:     68  93  12  649
1477468322.146:    -27  93  12  649
1477468322.147:    -39  93  12  649
1477468322.147:     29  93  12  649
1477468322.147:    128  93  12  649
1477468322.147:    210  93  12  649
1477468322.147:    259  93  12  649
1477468322.147:    279  93  12  649
1477468322.147:    274  93  12  649
1477468322.148:    255  93  12  649
1477468322.148:    240  93  12  649
1477468322.148:    241  93  12  649
1477468322.148:    240  93  12  649
1477468322.148:    202  93  12  649
1477468322.148:    123  93  12  649
1477468322.148:     48  93  12  649
1477468322.149:     33  93  12  649
1477468322.149:     77  93  12  649
1477468322.149:    123  93  12  649
1477468322.149:    120  93  12  649
1477468322.150:     80  93  12  649
1477468322.150:     56  93  12  649
1477468322.150:     81  93  12  649
1477468322.150:    126  93  12  649
1477468322.151:    140  93  12  649
1477468322.151:    106  93  12  649
1477468322.151:     56  93  12  649
1477468322.151:     28  93  12  649
1477468322.151:     26  93  12  649
1477468322.152:     23  93  12  649
1477468322.152:    -15  93  12  649
1477468322.152:   -107  93  12  649
1477468322.153:   -253  93  12  649
1477468322.153:   -428  93  12  649
1477468322.153:   -592  93  12  649
1477468322.153:   -729  93  12  649
1477468322.153:   -858  93  12  649
1477468322.154:  -1010  93  12  649
1477468322.154:  -1163  93  12  649
1477468322.154:  -1235  93  12  649
1477468322.154:  -1155  93  12  649
1477468322.154:   -942  93  12  649
1477468322.154:   -704  93  12  649
1477468322.154:   -538  93  12  649
1477468322.155:   -424  93  12  649
1477468322.155:   -242  93  12  649
1477468322.155:     98  93  12  649
1477468322.155:    559  93  12  649
1477468322.155:   1002  93  12  649
1477468322.155:   1308  93  12  649
1477468322.155:   1467  93  12  649
1477468322.156:   1554  93  12  649
1477468322.156:   1638  93  12  649
1477468322.156:   1714  93  12  649
1477468322.156:   1722  93  12  649
1477468322.156:   1609  93  12  649
1477468322.159:   1374  93  12  649
1477468322.160:   1052  93  12  649
1477468322.174:    696  93  12  649
1477468322.175:    362  93  12  649
1477468322.176:     93  93  12  649
1477468322.176:    -92  93  12  649
1477468322.176:   -213  93  12  649
1477468322.176:   -305  93  12  649
1477468322.176:   -379  93  12  649
1477468322.177:   -415  93  12  649
1477468322.177:   -389  93  12  649
1477468322.177:   -314  93  12  649
1477468322.178:   -229  93  12  649
1477468322.178:   -159  93  12  649
1477468322.179:   -103  93  12  649
1477468322.181:    -50  93  12  649
1477468322.181:    -13  93  12  649
1477468322.183:    -19  93  12  649
1477468322.193:    -70  93  12  649
1477468322.197:   -122  93  12  649
1477468322.197:   -133  93  12  649
1477468322.197:   -105  93  12  649
1477468322.198:    -87  93  12  649
1477468322.199:   -116  93  12  649
1477468322.200:   -178  93  12  649
1477468322.200:   -226  93  12  649
1477468322.201:   -231  93  12  649
1477468322.206:   -202  93  12  649
1477468322.207:   -166  93  12  649
1477468322.208:   -135  93  12  649
1477468322.208:   -110  93  12  649
1477468322.209:    -93  93  12  649
1477468322.211:   -101  93  12  649
1477468322.213:   -141  93  12  649
1477468322.226:   -201  93  12  649
1477468322.228:   -251  93  12  649
1477468322.228:   -271  93  12  649
1477468322.230:   -265  93  12  649
1477468322.230:   -246  93  12  649
1477468322.231:   -226  93  12  649
1477468322.231:   -207  93  12  649
1477468322.232:   -193  93  12  649
1477468322.232:   -187  93  12  649
1477468322.233:   -203  93  12  649
1477468322.234:   -244  93  12  649
1477468322.236:   -301  93  12  649
1477468322.245:   -350  93  12  649
1477468322.246:   -376  93  12  649
1477468322.247:   -385  93  12  649
1477468322.247:   -394  93  12  649
1477468322.248:   -412  93  12  649
1477468322.249:   -430  93  12  649
1477468322.250:   -431  93  12  649
1477468322.250:   -421  93  12  649
1477468322.251:   -423  93  12  649
1477468322.253:   -449  93  12  649
1477468322.264:   -489  93  12  649
1477468322.265:   -523  93  12  649
1477468322.266:   -549  93  12  649
1477468322.294:   -590  93  12  649
1477468322.294:   -659  93  12  649
1477468322.296:   -730  93  12  649
1477468322.297:   -765  93  12  649
1477468322.297:   -747  93  12  649
1477468322.302:   -711  93  12  649
1477468322.302:   -702  93  12  649
1477468322.302:   -736  93  12  649
1477468322.303:   -784  93  12  649
1477468322.309:   -811  93  12  649
1477468322.312:   -806  93  12  649
1477468322.340:   -792  93  12  649
1477468322.341:   -797  93  12  649
1477468322.342:   -836  93  12  649
1477468322.342:   -898  93  12  649
1477468322.343:   -967  93  12  649
1477468322.344:  -1025  93  12  649
1477468322.344:  -1070  93  12  649
1477468322.345:  -1105  93  12  649
1477468322.346:  -1139  93  12  649
1477468322.346:  -1175  93  12  649
1477468322.348:  -1214  93  12  649
1477468322.348:  -1251  93  12  649
1477468322.364:  -1277  93  12  649
1477468322.364:  -1284  93  12  649
1477468322.365:  -1266  93  12  649
1477468322.366:  -1231  93  12  649
1477468322.366:  -1200  93  12  649
1477468322.367:  -1190  93  12  649
1477468322.368:  -1195  93  12  649
1477468322.368:  -1181  93  12  649
1477468322.369:  -1123  93  12  649
1477468322.370:  -1031  93  12  649
1477468322.371:   -962  93  12  649
1477468322.372:   -964  93  12  649
1477468322.383:  -1024  93  12  649
1477468322.384:  -1076  93  12  649
1477468322.384:  -1059  93  12  649
1477468322.384:   -979  93  12  649
1477468322.385:   -902  93  12  649
1477468322.385:   -885  93  12  649
1477468322.386:   -916  93  12  649
1477468322.386:   -926  93  12  649
1477468322.387:   -856  93  12  649
1477468322.387:   -713  93  12  649
1477468322.387:   -554  93  12  649
1477468322.388:   -440  93  12  649
1477468322.392:   -381  93  12  649
1477468322.392:   -342  93  12  649
1477468322.392:   -282  93  12  649
1477468322.393:   -190  93  12  649
1477468322.393:    -91  93  12  649
1477468322.393:    -20  93  12  649
1477468322.394:      7  93  12  649
1477468322.394:     10  93  12  649
1477468322.395:     17  93  12  649
1477468322.395:     51  93  12  649
1477468322.395:    110  93  12  649
1477468322.396:    176  93  12  649
1477468322.396:    236  93  12  649
1477468322.397:    287  93  12  649
1477468322.397:    332  93  12  649
1477468322.398:    368  93  12  649
1477468322.398:    392  93  12  649
1477468322.399:    414  92  12  649
1477468322.400:    450  92  12  649
1477468322.400:    504  92  12  649
1477468322.401:    554  92  12  649
1477468322.401:    579  92  12  649
1477468322.402:    583  92  12  649
1477468322.403:    599  92  12  649
1477468322.403:    647  92  12  649
1477468322.404:    703  92  12  649
1477468322.405:    725  92  12  649
1477468322.406:    693  92  12  649
1477468322.411:    628  92  12  649
1477468322.412:    568  92  12  649
1477468322.424:    531  92  12  649
1477468322.425:    513  92  12  649
1477468322.426:    509  92  12  649
1477468322.426:    516  92  12  649
1477468322.427:    532  92  12  649
1477468322.428:    541  92  12  649
1477468322.429:    535  92  12  649
1477468322.431:    521  92  12  649
1477468322.443:    521  92  12  649
1477468322.443:    540  92  12  649
1477468322.443:    565  92  12  649
1477468322.443:    570  92  12  649
1477468322.444:    543  92  12  649
1477468322.444:    499  92  12  649
1477468322.444:    460  92  12  649
1477468322.445:    445  92  12  649
1477468322.446:    457  92  12  649
1477468322.448:    484  92  12  649
1477468322.450:    512  92  12  649
1477468322.451:    528  92  12  649
1477468322.461:    523  92  12  649
1477468322.462:    499  92  12  649
1477468322.463:    468  92  12  649
1477468322.463:    444  92  12  649
1477468322.464:    435  92  12  649
1477468322.464:    433  92  12  649
1477468322.465:    418  92  12  649
1477468322.467:    376  92  12  649
1477468322.469:    318  92  12  649
1477468322.470:    280  92  12  649
1477468322.478:    284  92  12  649
1477468322.478:    325  92  12  649
1477468322.479:    369  92  12  649
1477468322.479:    386  92  12  649
1477468322.482:    372  92  12  649
1477468322.488:    353  92  12  649
1477468322.489:    350  92  12  649
1477468322.490:    358  92  12  649
1477468322.495:    353  92  12  649
1477468322.499:    320  92  12  649
1477468322.503:    272  92  12  649
1477468322.504:    237  92  12  649
1477468322.505:    231  92  12  649
1477468322.509:    237  92  12  649
1477468322.509:    233  92  12  649
1477468322.510:    217  92  12  649
1477468322.527:    201  92  12  649
1477468322.530:    192  92  12  649
1477468322.532:    187  92  12  649
1477468322.533:    185  92  12  649
1477468322.534:    199  92  12  649
1477468322.534:    242  92  12  649
1477468322.537:    296  92  12  649
1477468322.537:    322  92  12  649
1477468322.538:    297  92  12  649
1477468322.539:    244  92  12  649
1477468322.539:    212  92  12  649
1477468322.540:    225  92  12  649
1477468322.541:    255  92  12  649
1477468322.542:    252  92  12  649
1477468322.559:    199  92  12  649
1477468322.560:    134  92  12  649
1477468322.561:    103  92  12  649
1477468322.562:    117  92  12  649
1477468322.562:    149  92  12  649
1477468322.562:    174  92  12  649
1477468322.562:    188  92  12  649
1477468322.563:    197  92  12  649
1477468322.563:    196  92  12  649
1477468322.563:    181  92  12  649
1477468322.563:    171  92  12  649
1477468322.563:    196  92  12  649
1477468322.564:    256  92  12  649
1477468322.564:    302  92  12  649
1477468322.564:    288  92  12  649
1477468322.565:    222  92  12  649
1477468322.566:    170  92  12  649
1477468322.568:    178  92  12  649
1477468322.569:    228  92  12  649
1477468322.574:    261  92  12  649
1477468322.574:    245  92  12  649
1477468322.578:    201  92  12  649
1477468322.580:    165  92  12  649
1477468322.582:    153  92  12  649
1477468322.584:    155  92  12  649
1477468322.584:    164  92  12  649
1477468322.600:    176  92  12  649
1477468322.600:    179  92  12  649
1477468322.600:    161  92  12  649
1477468322.601:    134  92  12  649
1477468322.601:    136  92  12  649
1477468322.602:    196  92  12  649
1477468322.603:    293  92  12  649
1477468322.603:    371  92  12  649
1477468322.604:    386  92  12  649
1477468322.604:    348  92  12  649
1477468322.605:    301  92  12  649
1477468322.608:    281  92  12  649
1477468322.609:    284  92  12  649
1477468322.613:    282  92  12  649
1477468322.615:    247  92  12  649
1477468322.619:    177  92  12  649
1477468322.630:     99  92  12  649
1477468322.631:     52  92  12  649
1477468322.632:     58  92  12  649
1477468322.632:    107  92  12  649
1477468322.633:    163  92  12  649
1477468322.634:    197  92  12  649
1477468322.634:    205  92  12  649
1477468322.635:    200  92  12  649
1477468322.635:    190  92  12  649
1477468322.645:    172  92  12  649
1477468322.649:    143  92  12  649
1477468322.650:    104  92  12  649
1477468322.655:     62  92  12  649
1477468322.656:     20  92  12  649
1477468322.657:    -16  92  12  649
1477468322.659:    -35  92  12  649
1477468322.659:    -32  92  12  649
1477468322.661:    -15  92  12  649
1477468322.662:     -4  92  12  649
1477468322.663:    -14  92  12  649
1477468322.663:    -40  92  12  649
1477468322.664:    -64  92  12  649
1477468322.665:    -69  92  12  649
1477468322.665:    -55  92  12  649
1477468322.666:    -33  92  12  649
1477468322.666:    -16  92  12  649
1477468322.669:     -5  92  12  649
1477468322.669:      7  92  12  649
1477468322.677:     33  92  12  649
1477468322.677:     76  92  12  649
1477468322.704:    125  92  12  649
1477468322.796:    156  92  12  649
1477468322.807:    159  92  12  649
1477468322.807:    149  92  12  649
1477468322.807:    151  92  12  649
1477468322.808:    172  92  12  649
1477468322.808:    191  92  12  649
1477468322.808:    178  92  12  649
1477468322.808:    139  92  12  649
1477468322.808:    104  92  12  649
1477468322.809:     99  92  12  649
1477468322.809:    113  92  12  649
1477468322.809:    118  92  12  649
1477468322.809:    108  92  12  649
1477468322.810:    102  92  12  649
1477468322.810:    125  92  12  649
1477468322.810:    166  92  12  649
1477468322.810:    188  92  12  649
1477468322.811:    171  92  12  649
1477468322.811:    141  92  12  649
1477468322.812:    133  92  12  649
1477468322.812:    151  92  12  649
1477468322.812:    163  92  12  649
1477468322.812:    139  92  12  649
1477468322.812:     92  92  12  649
1477468322.813:     65  92  12  649
1477468322.813:     84  92  12  649
1477468322.813:    125  92  12  649
1477468322.813:    146  92  12  649
1477468322.813:    128  92  12  649
1477468322.814:     97  92  12  649
1477468322.814:     85  92  12  649
1477468322.814:     97  92  12  649
1477468322.814:    111  92  12  649
1477468322.815:    107  92  12  649
1477468322.815:     92  92  12  649
1477468322.827:     87  92  12  649
1477468322.828:     97  92  12  649
1477468322.829:    106  92  12  649
1477468322.829:     77  92  12  649
1477468322.830:    -11  92  12  649
1477468322.830:   -150  92  12  649
1477468322.830:   -305  92  12  649
1477468322.831:   -453  92  12  649
1477468322.831:   -604  92  12  649
1477468322.831:   -787  92  12  649
1477468322.832:   -999  92  12  649
1477468322.832:  -1169  92  12  649
1477468322.832:  -1194  92  12  649
1477468322.832:  -1035  92  12  649
1477468322.833:   -777  92  12  649
1477468322.833:   -570  92  12  649
1477468322.833:   -492  92  12  649
1477468322.833:   -457  92  12  649
1477468322.834:   -282  92  12  649
1477468322.834:    138  92  12  649
1477468322.834:    708  92  12  649
1477468322.834:   1204  92  12  649
1477468322.835:   1461  92  12  649
1477468322.835:   1505  92  12  649
1477468322.835:   1505  92  12  649
1477468322.835:   1602  92  12  649
1477468322.836:   1785  92  12  649
1477468322.836:   1907  92  12  649
1477468322.836:   1822  92  12  649
1477468322.836:   1497  92  12  649
1477468322.848:   1040  92  12  649
1477468322.848:    607  92  12  649
1477468322.849:    304  92  12  649
1477468322.849:    126  92  12  649
1477468322.849:     -4  92  12  649
1477468322.849:   -157  92  12  649
1477468322.849:   -331  92  12  649
1477468322.849:   -456  92  12  649
1477468322.850:   -469  92  12  649
1477468322.850:   -372  92  12  649
1477468322.850:   -226  92  12  649
1477468322.850:    -94  92  12  649
1477468322.850:     -6  92  12  649
1477468322.850:     39  92  12  649
1477468322.850:     49  92  12  649
1477468322.850:     31  92  12  649
1477468322.851:      1  92  12  649
1477468322.851:    -10  92  12  649
1477468322.851:     16  92  12  649
1477468322.851:     63  92  12  649
1477468322.851:     93  92  12  649
1477468322.851:     80  92  12  649
1477468322.852:     24  92  12  649
1477468322.852:    -53  92  12  649
1477468322.852:   -128  92  12  649
1477468322.853:   -176  92  12  649
1477468322.853:   -179  92  12  649
1477468322.855:   -142  92  12  649
1477468322.864:    -96  92  12  649
1477468322.864:    -80  92  12  649
1477468322.865:   -106  92  12  649
1477468322.867:   -147  92  12  649
1477468322.868:   -164  92  12  649
1477468322.870:   -146  92  12  649
1477468322.886:   -119  92  12  649
1477468322.888:   -111  92  12  649
1477468322.889:   -120  92  12  649
1477468322.890:   -126  92  12  649
1477468322.890:   -118  92  12  649
1477468322.891:   -113  92  12  649
1477468322.891:   -132  92  12  649
1477468322.891:   -180  92  12  649
1477468322.892:   -241  92  12  649
1477468322.892:   -296  92  12  649
1477468322.893:   -333  92  12  649
1477468322.893:   -355  92  12  649
1477468322.894:   -370  92  12  649
1477468322.894:   -377  92  12  649
1477468322.906:   -375  92  12  649
1477468322.906:   -360  92  12  649
1477468322.907:   -336  92  12  649
1477468322.912:   -324  92  12  649
1477468322.914:   -342  92  12  649
1477468322.916:   -383  92  12  649
1477468322.926:   -428  92  12  649
1477468322.926:   -461  92  12  649
1477468322.926:   -481  92  12  649
1477468322.926:   -498  92  12  649
1477468322.927:   -522  92  12  649
1477468322.927:   -558  92  12  649
1477468322.927:   -609  92  12  649
1477468322.927:   -667  92  12  649
1477468322.928:   -709  92  12  649
1477468322.928:   -718  92  12  649
1477468322.929:   -711  92  12  649
1477468322.930:   -732  92  12  649
1477468322.931:   -809  92  12  649
1477468322.938:   -908  92  12  649
1477468322.939:   -962  92  12  649
1477468322.940:   -950  92  12  649
1477468322.944:   -921  92  12  649
1477468322.945:   -939  92  12  649
1477468322.956:  -1010  92  12  649
1477468322.957:  -1080  92  12  649
1477468322.965:  -1103  92  12  649
1477468322.966:  -1087  92  12  649
1477468322.980:  -1083  92  12  649
1477468322.982:  -1124  92  12  649
1477468322.984:  -1193  92  12  649
1477468322.985:  -1254  92  12  649
1477468322.986:  -1280  92  12  649
1477468322.987:  -1278  92  12  649
1477468322.988:  -1274  92  12  649
1477468322.988:  -1282  92  12  649
1477468322.989:  -1291  92  12  649
1477468322.989:  -1270  92  12  649
1477468322.991:  -1215  92  12  649
1477468322.992:  -1162  92  12  649
1477468323.003:  -1157  92  12  649
1477468323.003:  -1202  92  12  649
1477468323.003:  -1245  92  12  649
1477468323.003:  -1231  92  12  649
1477468323.004:  -1164  92  12  649
1477468323.004:  -1098  92  12  649
1477468323.004:  -1076  92  12  649
1477468323.005:  -1081  92  12  649
1477468323.005:  -1061  92  12  649
1477468323.005:   -995  92  12  649
1477468323.005:   -914  92  12  649
1477468323.005:   -858  92  12  649
1477468323.006:   -829  92  12  649
1477468323.006:   -786  92  12  649
1477468323.008:   -696  92  12  649
1477468323.008:   -574  92  12  649
1477468323.009:   -468  92  12  649
1477468323.011:   -401  92  12  649
1477468323.022:   -350  92  12  649
1477468323.024:   -273  92  12  649
1477468323.025:   -163  92  12  649
1477468323.026:    -58  92  12  649
1477468323.027:     -1  92  12  649
1477468323.029:     17  92  12  649
1477468323.030:     47  92  12  649
1477468323.031:    129  92  12  649
1477468323.041:    243  92  12  649
1477468323.041:    336  92  12  649
1477468323.041:    376  92  12  649
1477468323.041:    383  92  12  649
1477468323.042:    406  92  12  649
1477468323.042:    468  92  12  649
1477468323.042:    546  92  12  649
1477468323.047:    601  92  12  649
1477468323.048:    616  92  12  648
1477468323.050:    605  92  12  648
1477468323.050:    597  92  12  648
1477468323.052:    612  92  12  648
1477468323.056:    641  92  12  648
1477468323.057:    662  92  12  648
1477468323.058:    664  92  12  648
1477468323.059:    660  92  12  648
1477468323.060:    675  92  12  648
1477468323.068:    723  92  12  648
1477468323.084:    784  92  12  648
1477468323.084:    819  92  12  648
1477468323.084:    804  92  12  648
1477468323.085:    752  92  12  648
1477468323.085:    694  92  12  648
1477468323.085:    660  92  12  648
1477468323.085:    651  92  12  648
1477468323.085:    643  92  12  648
1477468323.085:    616  92  12  648
1477468323.085:    572  92  12  648
1477468323.086:    539  92  12  648
1477468323.086:    542  92  12  648
1477468323.093:    578  92  12  648
1477468323.093:    626  92  12  648
1477468323.095:    661  92  12  648
1477468323.096:    681  92  12  648
1477468323.098:    686  92  12  648
1477468323.098:    676  92  12  648
1477468323.119:    647  92  12  648
1477468323.119:    613  92  12  648
1477468323.120:    580  92  12  648
1477468323.120:    542  92  12  648
1477468323.120:    477  92  12  648
1477468323.120:    386  92  12  648
1477468323.120:    313  92  12  648
1477468323.120:    305  92  12  648
1477468323.121:    367  92  12  648
1477468323.121:    443  92  12  648
1477468323.121:    472  92  12  648
1477468323.126:    449  92  12  648
1477468323.127:    419  92  12  648
1477468323.128:    427  92  12  648
1477468323.134:    462  92  12  648
1477468323.135:    480  92  12  648
1477468323.155:    455  92  12  648
1477468323.155:    403  92  12  648
1477468323.155:    359  92  12  648
1477468323.156:    342  92  12  648
1477468323.156:    343  92  12  648
1477468323.156:    350  92  12  648
1477468323.156:    363  92  12  648
1477468323.156:    378  92  12  648
1477468323.156:    386  92  12  648
1477468323.156:    372  92  12  648
1477468323.157:    339  92  12  648
1477468323.157:    305  92  12  648
1477468323.157:    286  92  12  648
1477468323.158:    278  92  12  648
1477468323.158:    265  92  12  648
1477468323.159:    249  92  12  648
1477468323.162:    249  92  12  648
1477468323.162:    281  92  12  648
1477468323.164:    333  92  12  648
1477468323.164:    373  92  12  648
1477468323.169:    386  92  12  648
1477468323.169:    393  92  12  648
1477468323.170:    415  92  12  648
1477468323.172:    442  92  12  648
1477468323.173:    441  92  12  648
1477468323.176:    394  92  12  648
1477468323.179:    330  92  12  648
1477468323.188:    292  92  12  648
1477468323.216:    290  92  12  648
1477468323.217:    287  92  12  648
1477468323.217:    249  92  12  648
1477468323.217:    190  92  12  648
1477468323.217:    153  92  12  648
1477468323.218:    161  92  12  648
1477468323.218:    190  92  12  648
1477468323.218:    206  92  12  648
1477468323.218:    205  92  12  648
1477468323.219:    211  92  12  648
1477468323.219:    240  92  12  648
1477468323.219:    274  92  12  648
1477468323.225:    281  92  12  648
1477468323.226:    260  92  12  648
1477468323.227:    242  92  12  648
1477468323.228:    262  92  12  648
1477468323.228:    320  92  12  648
1477468323.228:    385  92  12  648
1477468323.229:    423  92  12  648
1477468323.231:    423  92  12  648
1477468323.231:    396  92  12  648
1477468323.232:    361  92  12  648
1477468323.232:    330  92  12  648
1477468323.233:    307  92  12  648
1477468323.234:    288  92  12  648
1477468323.234:    264  92  12  648
1477468323.236:    231  92  12  648
1477468323.241:    198  92  12  648
1477468323.249:    188  92  12  648
1477468323.249:    217  92  12  648
1477468323.250:    277  92  12  648
1477468323.250:    350  92  12  648
1477468323.251:    423  92  12  648
1477468323.253:    491  92  12  648
1477468323.254:    550  92  12  648
1477468323.255:    581  92  12  648
1477468323.255:    562  92  12  648
1477468323.256:    502  92  12  648
1477468323.257:    439  92  12  648
1477468323.258:    406  92  12  648
1477468323.266:    400  92  12  648
1477468323.278:    380  92  12  648
1477468323.278:    324  92  12  648
1477468323.282:    262  92  12  648
1477468323.295:    248  92  12  648
1477468323.296:    302  92  12  648
1477468323.296:    379  92  12  648
1477468323.296:    414  92  12  648
1477468323.296:    384  92  12  648
1477468323.296:    328  92  12  648
1477468323.296:    295  92  12  648
1477468323.296:    297  92  12  648
1477468323.298:    302  92  12  648
1477468323.299:    286  92  12  648
1477468323.301:    253  92  12  648
1477468323.302:    231  92  12  648
1477468323.303:    233  92  12  648
1477468323.303:    245  92  12  648
1477468323.303:    245  92  12  648
1477468323.303:    225  92  12  648
1477468323.305:    194  92  12  648
1477468323.305:    166  92  12  648
1477468323.307:    149  92  12  648
1477468323.307:    144  92  12  648
1477468323.309:    154  92  12  648
1477468323.310:    168  92  12  648
1477468323.312:    178  92  12  648
1477468323.313:    184  92  12  648
1477468323.315:    202  92  12  648
1477468323.320:    253  92  12  648
1477468323.340:    333  92  12  648
1477468323.340:    413  92  12  648
1477468323.341:    468  92  12  648
1477468323.341:    490  92  12  648
1477468323.341:    492  92  12  648
1477468323.341:    479  92  12  648
1477468323.342:    446  92  12  648
1477468323.342:    390  92  12  648
1477468323.342:    332  92  12  648
1477468323.342:    295  92  12  648
1477468323.342:    281  92  12  648
1477468323.343:    268  92  12  648
1477468323.343:    241  92  12  648
1477468323.347:    213  92  12  648
1477468323.348:    214  92  12  648
1477468323.400:    253  92  12  648
1477468323.400:    306  92  12  648
1477468323.401:    344  92  12  648
1477468323.401:    360  92  12  648
1477468323.401:    371  92  12  648
1477468323.403:    385  92  12  648
1477468323.403:    397  92  12  648
1477468323.403:    399  92  12  648
1477468323.403:    396  92  12  648
1477468323.403:    393  92  12  648
1477468323.405:    387  92  12  648
1477468323.406:    374  92  12  648
1477468323.407:    356  92  12  648
1477468323.407:    336  92  12  648
1477468323.407:    310  92  12  648
1477468323.407:    275  92  12  648
1477468323.407:    243  92  12  648
1477468323.408:    234  92  12  648
1477468323.408:    249  92  12  648
1477468323.408:    255  92  12  648
1477468323.408:    222  92  12  648
1477468323.408:    160  92  12  648
1477468323.408:    123  92  12  648
1477468323.409:    151  92  12  648
1477468323.409:    228  92  12  648
1477468323.409:    303  92  12  648
1477468323.409:    333  92  12  648
1477468323.409:    298  92  12  648
1477468323.410:    197  92  12  648
1477468323.436:     46  92  12  648
1477468323.436:   -112  92  12  648
1477468323.437:   -230  92  12  648
1477468323.437:   -317  92  12  648
1477468323.437:   -449  92  12  648
1477468323.437:   -672  92  12  648
1477468323.437:   -904  92  12  648
1477468323.437:   -977  92  12  648
1477468323.438:   -814  92  12  648
1477468323.438:   -535  92  12  648
1477468323.438:   -354  92  12  648
1477468323.438:   -348  92  12  648
1477468323.441:   -360  92  12  648
1477468323.441:   -162  92  12  648
1477468323.441:    311  92  12  648
1477468323.441:    898  92  12  648
1477468323.443:   1377  92  12  648
1477468323.449:   1658  92  12  648
1477468323.458:   1805  92  12  648
1477468323.459:   1934  92  12  648
1477468323.459:   2082  92  12  648
1477468323.459:   2201  92  12  648
1477468323.459:   2198  92  12  648
1477468323.459:   2011  92  12  648
1477468323.460:   1644  92  12  648
1477468323.460:   1176  92  12  648
1477468323.464:    720  92  12  648
1477468323.464:    356  92  12  648
1477468323.468:     98  92  12  648
1477468323.470:    -90  92  12  648
1477468323.470:   -231  92  12  648
1477468323.472:   -312  92  12  648
1477468323.483:   -316  92  12  648
1477468323.483:   -251  92  12  648
1477468323.483:   -151  92  12  648
1477468323.483:    -41  92  12  648
1477468323.483:     68  92  12  648
1477468323.484:    163  92  12  648
1477468323.484:    213  92  12  648
1477468323.486:    192  92  12  648
1477468323.491:    115  92  12  648
1477468323.492:     31  92  12  648
1477468323.496:     -8  92  12  648
1477468323.500:      5  92  12  648
1477468323.501:     46  92  12  648
1477468323.502:     77  92  12  648
1477468323.504:     79  92  12  648
1477468323.504:     51  92  12  648
1477468323.506:     15  92  12  648
1477468323.506:      0  92  12  648
1477468323.506:     26  92  12  648
1477468323.508:     77  92  12  648
1477468323.509:    116  92  12  648
1477468323.510:    119  92  12  648
1477468323.525:    105  92  12  648
1477468323.526:    108  92  12  648
1477468323.526:    126  92  12  648
1477468323.526:    121  92  12  648
1477468323.526:     72  92  12  648
1477468323.527:     14  92  12  648
1477468323.531:      6  92  12  648
1477468323.531:     53  92  12  648
1477468323.534:     91  92  12  648
1477468323.536:     60  92  12  648
1477468323.549:    -24  92  12  648
1477468323.549:    -92  92  12  648
1477468323.549:    -92  92  12  648
1477468323.549:    -49  92  12  648
1477468323.550:    -22  92  12  648
1477468323.550:    -38  92  12  648
1477468323.550:    -73  92  12  648
1477468323.550:    -96  92  12  648
1477468323.550:   -103  92  12  648
1477468323.550:   -108  92  12  648
1477468323.551:   -120  92  12  648
1477468323.554:   -139  92  12  648
1477468323.556:   -167  92  12  648
1477468323.560:   -214  92  12  648
1477468323.560:   -274  92  12  648
1477468323.562:   -321  92  12  648
1477468323.563:   -334  92  12  648
1477468323.567:   -316  92  12  648
1477468323.568:   -297  92  12  648
1477468323.570:   -307  92  12  648
1477468323.572:   -355  92  12  648
1477468323.574:   -422  92  12  648
1477468323.585:   -482  92  12  648
1477468323.585:   -516  92  12  648
1477468323.585:   -530  92  12  648
1477468323.586:   -544  92  12  648
1477468323.586:   -577  92  12  648
1477468323.588:   -630  92  12  648
1477468323.588:   -683  92  12  648
1477468323.588:   -718  92  12  648
1477468323.589:   -736  92  12  648
1477468323.593:   -750  92  12  648
1477468323.594:   -773  92  12  648
1477468323.596:   -808  92  12  648
1477468323.598:   -851  92  12  648
1477468323.603:   -904  92  12  648
1477468323.603:   -971  92  12  648
1477468323.604:  -1049  92  12  648
1477468323.609:  -1118  92  12  648
1477468323.610:  -1162  92  12  648
1477468323.622:  -1172  92  12  648
1477468323.623:  -1161  92  12  648
1477468323.623:  -1151  92  12  648
1477468323.624:  -1154  92  12  648
1477468323.625:  -1168  92  12  648
1477468323.628:  -1169  92  12  648
1477468323.629:  -1136  92  12  648
1477468323.630:  -1069  92  12  648
1477468323.640:   -994  92  12  648
1477468323.641:   -945  92  12  648
1477468323.641:   -933  92  12  648
1477468323.641:   -935  92  12  648
1477468323.642:   -922  92  12  648
1477468323.642:   -881  92  12  648
1477468323.643:   -833  92  12  648
1477468323.643:   -803  92  12  648
1477468323.644:   -794  92  12  648
1477468323.648:   -780  92  12  648
1477468323.658:   -739  92  12  648
1477468323.659:   -677  92  12  648
1477468323.659:   -617  92  12  648
1477468323.661:   -571  92  12  648
1477468323.661:   -526  92  12  648
1477468323.663:   -461  92  12  648
1477468323.664:   -372  92  12  648
1477468323.665:   -277  92  12  648
1477468323.689:   -202  92  12  648
1477468323.689:   -150  92  12  648
1477468323.689:    -99  92  12  648
1477468323.689:    -24  92  12  648
1477468323.690:     73  92  12  648
1477468323.690:    169  92  12  648
1477468323.690:    241  92  12  648
1477468323.691:    296  92  12  648
1477468323.691:    357  92  12  648
1477468323.691:    437  92  12  648
1477468323.691:    514  92  12  648
1477468323.692:    560  92  12  648
1477468323.692:    568  92  12  648
1477468323.692:    572  92  12  648
1477468323.693:    603  92  12  648
1477468323.694:    658  92  12  648
1477468323.695:    705  92  12  648
1477468323.698:    726  93  12  648
1477468323.703:    737  93  12  648
1477468323.704:    771  93  12  648
1477468323.704:    840  93  12  648
1477468323.706:    922  93  12  648
1477468323.707:    976  93  12  648
1477468323.708:    980  93  12  648
1477468323.723:    934  93  12  648
1477468323.724:    869  93  12  648
1477468323.724:    821  93  12  648
1477468323.724:    808  93  12  648
1477468323.725:    817  93  12  648
1477468323.726:    812  93  12  648
1477468323.728:    779  93  12  648
1477468323.730:    739  93  12  648
1477468323.731:    729  93  12  648
1477468323.731:    757  93  12  648
1477468323.743:    799  93  12  648
1477468323.743:    824  93  12  648
1477468323.744:    829  93  12  648
1477468323.744:    834  93  12  648
1477468323.748:    838  93  12  648
1477468323.748:    824  93  12  648
1477468323.760:    781  93  12  648
1477468323.760:    727  93  12  648
1477468323.760:    695  93  12  648
1477468323.761:    687  93  12  648
1477468323.761:    679  93  12  648
1477468323.761:    647  93  12  648
1477468323.761:    598  93  12  648
1477468323.761:    562  93  12  648
1477468323.761:    557  93  12  648
1477468323.761:    580  93  12  648
1477468323.761:    620  93  12  648
1477468323.762:    668  93  12  648
1477468323.763:    715  93  12  648
1477468323.767:    745  93  12  648
1477468323.768:    746  93  12  648
1477468323.773:    726  93  12  648
1477468323.779:    712  93  12  648
1477468323.780:    716  93  12  648
1477468323.780:    719  93  12  648
1477468323.781:    694  93  12  648
1477468323.782:    643  93  12  648
1477468323.783:    589  93  12  648
1477468323.786:    557  93  12  648
1477468323.787:    547  93  12  648
1477468323.798:    546  93  12  648
1477468323.799:    547  93  12  648
1477468323.799:    553  93  12  648
1477468323.799:    566  93  12  648
1477468323.800:    576  93  12  648
1477468323.800:    567  93  12  648
1477468323.801:    532  93  12  648
1477468323.802:    487  93  12  648
1477468323.814:    455  93  12  648
1477468323.817:    450  93  12  648
1477468323.818:    463  93  12  648
1477468323.823:    469  93  12  648
1477468323.824:    450  93  12  648
1477468323.825:    417  93  12  648
1477468323.836:    398  93  12  648
1477468323.837:    412  93  12  648
1477468323.837:    447  93  12  648
1477468323.838:    473  93  12  648
1477468323.838:    475  93  12  648
1477468323.839:    467  93  12  648
1477468323.839:    469  93  12  648
1477468323.839:    476  93  12  648
1477468323.840:    466  93  12  648
1477468323.840:    438  93  12  648
1477468323.852:    421  93  12  648
1477468323.853:    446  93  12  648
1477468323.855:    510  93  12  648
1477468323.856:    567  93  12  648
1477468323.857:    578  93  12  648
1477468323.858:    545  93  12  648
1477468323.858:    504  93  12  648
1477468323.860:    486  93  12  648
1477468323.861:    494  93  12  648
1477468323.862:    510  93  12  648
1477468323.863:    521  93  12  648
1477468323.864:    518  93  12  648
1477468323.876:    494  93  12  648
1477468323.877:    450  93  12  648
1477468323.878:    401  93  12  648
1477468323.878:    373  93  12  648
1477468323.879:    374  93  12  648
1477468323.880:    395  93  12  648
1477468323.880:    414  93  12  648
1477468323.883:    415  93  12  648
1477468323.884:    393  93  12  648
1477468323.886:    366  93  12  648
1477468323.886:    358  93  12  648
1477468323.887:    386  93  12  648
1477468323.887:    440  93  12  648
1477468323.888:    482  93  12  648
1477468323.889:    482  93  12  648
1477468323.893:    449  93  12  648
1477468323.906:    423  93  12  648
1477468323.906:    428  93  12  648
1477468323.907:    443  93  12  648
1477468323.908:    440  93  12  648
1477468323.908:    426  93  12  648
1477468323.910:    439  93  12  648
1477468323.912:    494  93  12  648
1477468323.913:    549  93  12  648
1477468323.914:    553  93  12  648
1477468323.915:    506  93  12  648
1477468323.916:    460  93  12  648
1477468323.918:    461  93  12  648
1477468323.918:    497  93  12  648
1477468323.919:    522  93  12  648
1477468323.921:    514  93  12  648
1477468323.923:    485  93  12  648
1477468323.941:    451  93  12  648
1477468323.942:    412  93  12  648
1477468323.943:    361  93  12  648
1477468323.946:    313  93  12  648
1477468323.947:    291  93  12  648
1477468323.948:    295  93  12  648
1477468323.949:    297  93  12  648
1477468323.950:    264  93  12  648
1477468323.975:    203  93  12  648
1477468323.977:    155  93  12  648
1477468323.979:    154  93  12  648
1477468323.979:    199  93  12  648
1477468323.980:    249  93  12  648
1477468323.981:    256  93  12  648
1477468323.982:    205  93  12  648
1477468323.982:    129  93  12  648
1477468323.983:     80  93  12  648
1477468323.983:     82  93  12  648
1477468323.983:    108  93  12  648
1477468323.983:    118  93  12  648
1477468323.983:    100  93  12  648
1477468323.984:     84  93  12  648
1477468323.984:    102  93  12  648
1477468323.984:    148  93  12  648
1477468323.985:    189  93  12  648
1477468323.985:    210  93  12  648
1477468323.986:    230  93  12  648
1477468323.986:    271  93  12  648
1477468323.987:    325  93  12  648
1477468323.987:    364  93  12  648
1477468323.987:    372  93  12  648
1477468323.987:    360  93  12  648
1477468323.998:    344  93  12  648
1477468324.090:    330  93  12  648
1477468324.092:    319  93  12  648
1477468324.093:    311  93  12  648
1477468324.093:    310  93  12  648
1477468324.094:    304  93  12  648
1477468324.097:    282  93  12  648
1477468324.098:    253  93  12  648
1477468324.098:    243  93  12  648
1477468324.098:    262  93  12  648
1477468324.099:    287  93  12  648
1477468324.099:    286  93  12  648
1477468324.100:    253  93  12  648
1477468324.100:    216  93  12  648
1477468324.112:    199  93  12  648
1477468324.112:    202  93  12  648
1477468324.113:    206  93  12  648
1477468324.113:    201  93  12  648
1477468324.113:    194  93  12  648
1477468324.114:    192  93  12  648
1477468324.114:    192  93  12  648
1477468324.114:    182  93  12  648
1477468324.115:    162  93  12  648
1477468324.115:    144  93  12  648
1477468324.115:    137  93  12  648
1477468324.116:    140  93  12  648
1477468324.116:    140  93  12  648
1477468324.116:    127  93  12  648
1477468324.117:    107  93  12  648
1477468324.117:     96  93  12  648
1477468324.117:     95  93  12  648
1477468324.117:     86  93  12  648
1477468324.118:     50  93  12  648
1477468324.118:    -11  93  12  648
1477468324.119:    -85  93  12  648
1477468324.119:   -161  93  12  648
1477468324.120:   -243  93  12  648
1477468324.120:   -347  93  12  648
1477468324.121:   -483  93  12  648
1477468324.121:   -648  93  12  648
1477468324.122:   -814  93  12  648
1477468324.122:   -931  93  12  648
1477468324.122:   -942  93  12  648
1477468324.122:   -832  93  12  648
1477468324.145:   -658  93  12  648
1477468324.145:   -517  93  12  648
1477468324.146:   -443  93  12  648
1477468324.147:   -361  93  12  648
1477468324.148:   -150  93  12  648
1477468324.148:    226  93  12  648
1477468324.149:    671  93  12  648
1477468324.149:   1039  93  12  648
1477468324.150:   1263  93  12  648
1477468324.151:   1393  93  12  648
1477468324.153:   1512  93  12  648
1477468324.153:   1641  93  12  648
1477468324.154:   1733  93  12  648
1477468324.156:   1729  93  12  648
1477468324.156:   1614  93  12  648
1477468324.156:   1403  93  12  648
1477468324.159:   1121  93  12  648
1477468324.163:    799  93  12  648
1477468324.165:    479  93  12  648
1477468324.170:    206  93  12  648
1477468324.171:     -3  93  12  648
1477468324.172:   -166  93  12  648
1477468324.172:   -304  93  12  648
1477468324.173:   -420  93  12  648
1477468324.187:   -492  93  12  648
1477468324.188:   -497  93  12  648
1477468324.189:   -435  93  12  648
1477468324.190:   -333  93  12  648
1477468324.190:   -233  93  12  648
1477468324.191:   -174  93  12  648
1477468324.192:   -156  93  12  648
1477468324.192:   -147  93  12  648
1477468324.193:   -110  93  12  648
1477468324.193:    -45  93  12  648
1477468324.225:     10  93  12  648
1477468324.225:     16  93  12  648
1477468324.225:    -25  93  12  648
1477468324.225:    -65  93  12  648
1477468324.226:    -67  93  12  648
1477468324.226:    -40  93  12  648
1477468324.226:    -30  93  12  648
1477468324.226:    -69  93  12  648
1477468324.227:   -139  93  12  648
1477468324.227:   -193  93  12  648
1477468324.227:   -199  93  12  648
1477468324.228:   -164  93  12  648
1477468324.228:   -117  93  12  648
1477468324.228:    -90  93  12  648
1477468324.228:    -99  93  12  648
1477468324.228:   -144  93  12  648
1477468324.229:   -207  93  12  648
1477468324.229:   -256  93  12  648
1477468324.229:   -255  93  12  648
1477468324.229:   -199  93  12  648
1477468324.230:   -126  93  12  648
1477468324.230:    -91  93  12  648
1477468324.231:   -119  93  12  648
1477468324.231:   -179  93  12  648
1477468324.232:   -224  93  12  648
1477468324.233:   -229  93  12  648
1477468324.233:   -214  93  12  648
1477468324.233:   -215  93  12  648
1477468324.234:   -240  93  12  648
1477468324.234:   -268  93  12  648
1477468324.234:   -278  93  12  648
1477468324.234:   -278  93  12  648
1477468324.234:   -292  93  12  648
1477468324.235:   -331  93  12  648
1477468324.235:   -375  93  12  648
1477468324.235:   -400  93  12  648
1477468324.235:   -406  93  12  648
1477468324.235:   -423  93  12  648
1477468324.236:   -470  93  12  648
1477468324.236:   -532  93  12  648
1477468324.236:   -573  93  12  648
1477468324.236:   -583  93  12  648
1477468324.236:   -591  93  12  648
1477468324.236:   -636  93  12  648
1477468324.237:   -705  93  12  648
1477468324.237:   -745  93  12  648
1477468324.237:   -711  93  12  648
1477468324.238:   -631  93  12  648
1477468324.239:   -588  93  12  648
1477468324.260:   -638  93  12  648
1477468324.276:   -755  93  12  648
1477468324.276:   -864  93  12  648
1477468324.277:   -914  93  12  648
1477468324.277:   -920  93  12  648
1477468324.278:   -942  93  12  648
1477468324.279:  -1013  93  12  648
1477468324.280:  -1110  93  12  648
1477468324.281:  -1178  93  12  648
1477468324.281:  -1188  93  12  648
1477468324.282:  -1159  93  12  648
1477468324.282:  -1135  93  12  648
1477468324.283:  -1142  93  12  648
1477468324.283:  -1173  93  12  648
1477468324.284:  -1209  93  12  648
1477468324.284:  -1236  93  12  648
1477468324.285:  -1259  93  12  648
1477468324.285:  -1289  93  12  648
1477468324.286:  -1321  93  12  648
1477468324.304:  -1340  93  12  648
1477468324.305:  -1336  93  12  648
1477468324.329:  -1310  93  12  648
1477468324.329:  -1274  93  12  648
1477468324.330:  -1240  93  12  648
1477468324.330:  -1207  93  12  648
1477468324.330:  -1165  93  12  648
1477468324.330:  -1105  93  12  648
1477468324.330:  -1034  93  12  648
1477468324.331:   -974  93  12  648
1477468324.331:   -936  93  12  648
1477468324.331:   -914  93  12  648
1477468324.332:   -887  93  12  648
1477468324.332:   -840  93  12  648
1477468324.332:   -775  93  12  648
1477468324.333:   -698  93  12  648
1477468324.333:   -608  93  12  648
1477468324.333:   -502  93  12  648
1477468324.333:   -387  93  12  648
1477468324.334:   -287  93  12  648
1477468324.334:   -224  93  12  648
1477468324.334:   -199  93  12  648
1477468324.334:   -189  93  12  648
1477468324.335:   -164  93  12  648
1477468324.335:   -109  93  12  648
1477468324.335:    -27  93  12  648
1477468324.335:     66  93  12  648
1477468324.336:    156  93  12  648
1477468324.336:    234  93  12  648
1477468324.336:    300  93  12  648
1477468324.336:    360  93  12  648
1477468324.337:    425  93  12  648
1477468324.337:    499  93  12  648
1477468324.337:    574  93  12  648
1477468324.338:    629  93  12  648
1477468324.343:    645  93  12  648
1477468324.343:    631  93  12  648
1477468324.344:    615  93  12  648
1477468324.345:    618  93  12  648
1477468324.346:    637  93  12  648
1477468324.350:    657  93  12  648
1477468324.351:    677  92  12  648
1477468324.365:    707  92  12  648
1477468324.366:    750  92  12  648
1477468324.367:    787  92  12  648
1477468324.367:    799  92  12  648
1477468324.368:    794  92  12  648
1477468324.370:    803  92  12  648
1477468324.371:    832  92  12  648
1477468324.373:    849  92  12  648
1477468324.399:    814  92  12  648
1477468324.399:    732  92  12  648
1477468324.399:    655  92  12  648
1477468324.399:    631  92  12  648
1477468324.399:    659  92  12  648
1477468324.400:    695  92  12  648
1477468324.400:    697  92  12  648
1477468324.400:    667  92  12  648
1477468324.400:    635  92  12  648
1477468324.400:    624  92  12  648
1477468324.400:    632  92  12  648
1477468324.400:    646  92  12  648
1477468324.401:    656  92  12  648
1477468324.401:    665  92  12  648
1477468324.401:    671  92  12  648
1477468324.401:    671  92  12  648
1477468324.401:    666  92  12  648
1477468324.401:    654  92  12  648
1477468324.403:    631  92  12  648
1477468324.406:    597  92  12  648
1477468324.410:    563  92  12  648
1477468324.411:    545  92  12  648
1477468324.421:    554  92  12  648
1477468324.421:    575  92  12  648
1477468324.421:    585  92  12  648
1477468324.421:    575  92  12  648
1477468324.421:    560  92  12  648
1477468324.424:    559  92  12  648
1477468324.425:    568  92  12  648
1477468324.426:    567  92  12  648
1477468324.427:    539  92  12  648
1477468324.428:    485  92  12  648
1477468324.431:    423  92  12  648
1477468324.433:    375  92  12  648
1477468324.438:    358  92  12  648
1477468324.438:    374  92  12  648
1477468324.447:    400  92  12  648
1477468324.447:    401  92  12  648
1477468324.447:    364  92  12  648
1477468324.448:    319  92  12  648
1477468324.448:    311  92  12  648
1477468324.454:    355  92  12  648
1477468324.454:    420  92  12  648
1477468324.455:    465  92  12  648
1477468324.455:    476  92  12  648
1477468324.456:    473  92  12  648
1477468324.459:    467  92  12  648
1477468324.463:    457  92  12  648
1477468324.468:    440  92  12  648
1477468324.468:    421  92  12  648
1477468324.469:    400  92  12  648
1477468324.471:    360  92  12  648
1477468324.474:    288  92  12  648
1477468324.475:    206  92  12  648
1477468324.475:    158  92  12  648
1477468324.479:    169  92  12  648
1477468324.482:    220  92  12  648
1477468324.483:    266  92  12  648
1477468324.497:    279  92  12  648
1477468324.498:    267  92  12  648
1477468324.500:    259  92  12  648
1477468324.503:    266  92  12  648
1477468324.504:    285  92  12  648
1477468324.504:    300  92  12  648
1477468324.505:    306  92  12  648
1477468324.506:    307  92  12  648
1477468324.518:    310  92  12  648
1477468324.518:    319  92  12  648
1477468324.518:    332  92  12  648
1477468324.519:    344  92  12  648
1477468324.519:    357  92  12  648
1477468324.519:    372  92  12  648
1477468324.520:    377  92  12  648
1477468324.520:    360  92  12  648
1477468324.520:    318  92  12  648
1477468324.520:    274  92  12  648
1477468324.520:    255  92  12  648
1477468324.522:    264  92  12  648
1477468324.522:    278  92  12  648
1477468324.525:    277  92  12  648
1477468324.525:    272  92  12  648
1477468324.528:    292  92  12  648
1477468324.538:    334  92  12  648
1477468324.538:    366  92  12  648
1477468324.538:    357  92  12  648
1477468324.539:    325  92  12  648
1477468324.539:    324  92  12  648
1477468324.539:    385  92  12  648
1477468324.541:    472  92  12  648
1477468324.545:    515  92  12  648
1477468324.546:    491  92  12  648
1477468324.547:    442  92  12  648
1477468324.549:    433  92  12  648
1477468324.553:    475  92  12  648
1477468324.560:    516  92  12  648
1477468324.560:    501  92  12  648
1477468324.560:    428  92  12  648
1477468324.560:    342  92  12  648
1477468324.564:    287  92  12  648
1477468324.570:    269  92  12  648
1477468324.572:    270  92  12  648
1477468324.577:    275  92  12  648
1477468324.579:    282  92  12  648
1477468324.580:    294  92  12  648
1477468324.583:    305  92  12  648
1477468324.583:    306  92  12  648
1477468324.585:    299  92  12  648
1477468324.587:    287  92  12  648
1477468324.608:    274  92  12  648
1477468324.609:    258  92  12  648
1477468324.609:    237  92  12  648
1477468324.610:    215  92  12  648
1477468324.611:    197  92  12  648
1477468324.612:    180  92  12  648
1477468324.612:    161  92  12  648
1477468324.613:    142  92  12  648
1477468324.613:    131  92  12  648
1477468324.613:    124  92  12  648
1477468324.613:    112  92  12  648
1477468324.614:     89  92  12  648
1477468324.614:     63  92  12  648
1477468324.614:     50  92  12  648
1477468324.614:     51  92  12  648
1477468324.615:     49  92  12  648
1477468324.615:     34  92  12  648
1477468324.619:     14  92  12  648
1477468324.630:     14  92  12  648
1477468324.631:     42  92  12  648
1477468324.631:     86  92  12  648
1477468324.631:    131  92  12  648
1477468324.634:    172  92  12  648
1477468324.635:    214  92  12  648
1477468324.635:    249  92  12  648
1477468324.636:    266  92  12  648
1477468324.636:    263  92  12  648
1477468324.637:    254  92  12  648
1477468324.637:    251  92  12  648
1477468324.638:    243  92  12  648
1477468324.638:    210  92  12  648
1477468324.641:    157  92  12  648
1477468324.647:    113  92  12  648
1477468324.648:    114  92  12  648
1477468324.650:    159  92  12  648
1477468324.650:    210  92  12  648
1477468324.674:    236  92  12  648
1477468324.768:    241  92  12  648
1477468324.769:    254  92  12  648
1477468324.769:    289  92  12  648
1477468324.769:    319  92  12  648
1477468324.769:    315  92  12  648
1477468324.770:    280  92  12  648
1477468324.770:    251  92  12  648
1477468324.770:    252  92  12  648
1477468324.770:    260  92  12  648
1477468324.770:    243  92  12  648
1477468324.771:    206  92  12  648
1477468324.772:    187  92  12  648
1477468324.772:    212  92  12  648
1477468324.784:    252  92  12  648
1477468324.784:    260  92  12  648
1477468324.784:    222  92  12  648
1477468324.784:    175  92  12  648
1477468324.785:    151  92  12  648
1477468324.785:    140  92  12  648
1477468324.785:    119  92  12  648
1477468324.785:     93  92  12  648
1477468324.785:     85  92  12  648
1477468324.785:     97  92  12  648
1477468324.785:    104  92  12  648
1477468324.786:     84  92  12  648
1477468324.786:     26  92  12  648
1477468324.786:    -77  92  12  648
1477468324.786:   -229  92  12  648
1477468324.786:   -408  92  12  648
1477468324.787:   -575  92  12  648
1477468324.787:   -708  92  12  648
1477468324.787:   -832  92  12  648
1477468324.787:   -971  92  12  648
1477468324.787:  -1078  92  12  648
1477468324.787:  -1050  92  12  648
1477468324.788:   -854  92  12  648
1477468324.788:   -604  92  12  648
1477468324.788:   -454  92  12  648
1477468324.788:   -410  92  12  648
1477468324.788:   -302  92  12  648
1477468324.788:     31  92  12  648
1477468324.788:    552  92  12  648
1477468324.788:   1049  92  12  648
1477468324.789:   1351  92  12  648
1477468324.789:   1479  92  12  648
1477468324.789:   1576  92  12  648
1477468324.789:   1730  92  12  648
1477468324.789:   1896  92  12  648
1477468324.789:   1973  92  12  648
1477468324.790:   1902  92  12  648
1477468324.790:   1683  92  12  648
1477468324.790:   1344  92  12  648
1477468324.790:    932  92  12  648
1477468324.790:    523  92  12  648
1477468324.790:    194  92  12  648
1477468324.790:    -29  92  12  648
1477468324.791:   -193  92  12  648
1477468324.791:   -355  92  12  648
1477468324.792:   -507  92  12  648
1477468324.792:   -586  92  12  648
1477468324.792:   -554  92  12  648
1477468324.792:   -439  92  12  648
1477468324.792:   -299  92  12  648
1477468324.792:   -167  92  12  648
1477468324.793:    -38  92  12  648
1477468324.793:     77  92  12  648
1477468324.793:    142  92  12  648
1477468324.793:    125  92  12  648
1477468324.793:     53  92  12  648
1477468324.796:     -1  92  12  648
1477468324.799:      3  92  12  648
1477468324.803:     33  92  12  648
1477468324.809:     17  92  12  648
1477468324.809:    -75  92  12  648
1477468324.809:   -189  92  12  648
1477468324.810:   -252  92  12  648
1477468324.812:   -243  92  12  648
1477468324.846:   -200  92  12  648
1477468324.847:   -163  92  12  648
1477468324.848:   -132  92  12  648
1477468324.849:    -90  92  12  648
1477468324.849:    -49  92  12  648
1477468324.851:    -47  92  12  648
1477468324.852:    -92  92  12  648
1477468324.853:   -141  92  12  648
1477468324.855:   -143  92  12  648
1477468324.856:   -104  92  12  648
1477468324.872:    -78  92  12  648
1477468324.872:   -106  92  12  648
1477468324.873:   -166  92  12  648
1477468324.874:   -208  92  12  648
1477468324.874:   -215  92  12  648
1477468324.874:   -206  92  12  648
1477468324.875:   -211  92  12  648
1477468324.875:   -229  92  12  648
1477468324.875:   -252  92  12  648
1477468324.876:   -283  92  12  648
1477468324.876:   -321  92  12  648
1477468324.876:   -355  92  12  648
1477468324.877:   -364  92  12  648
1477468324.877:   -352  92  12  648
1477468324.879:   -348  92  12  648
1477468324.880:   -371  92  12  648
1477468324.880:   -410  92  12  648
1477468324.880:   -439  92  12  648
1477468324.881:   -451  92  12  648
1477468324.881:   -461  92  12  648
1477468324.881:   -479  92  12  648
1477468324.881:   -507  92  12  648
1477468324.882:   -532  92  12  648
1477468324.882:   -557  92  12  648
1477468324.882:   -590  92  12  648
1477468324.883:   -628  92  12  648
1477468324.884:   -661  92  12  648
1477468324.884:   -685  92  12  648
1477468324.884:   -708  92  12  648
1477468324.884:   -742  92  12  648
1477468324.885:   -795  92  12  648
1477468324.885:   -861  92  12  648
1477468324.886:   -929  92  12  648
1477468324.891:   -982  92  12  648
1477468324.906:  -1007  92  12  648
1477468324.906:  -1009  92  12  648
1477468324.907:  -1003  92  12  648
1477468324.908:  -1013  92  12  648
1477468324.908:  -1058  92  12  648
1477468324.909:  -1135  92  12  648
1477468324.909:  -1225  92  12  648
1477468324.911:  -1300  92  12  648
1477468324.912:  -1345  92  12  648
1477468324.913:  -1373  92  12  648
1477468324.926:  -1410  92  12  648
1477468324.927:  -1468  92  12  648
1477468324.927:  -1527  92  12  648
1477468324.927:  -1550  92  12  648
1477468324.928:  -1521  92  12  648
1477468324.928:  -1466  92  12  648
1477468324.929:  -1426  92  12  648
1477468324.929:  -1414  92  12  648
1477468324.932:  -1403  92  12  648
1477468324.934:  -1358  92  12  648
1477468324.946:  -1284  92  12  648
1477468324.947:  -1225  92  12  648
1477468324.948:  -1210  92  12  648
1477468324.948:  -1217  92  12  648
1477468324.948:  -1196  92  12  648
1477468324.949:  -1125  92  12  648
1477468324.949:  -1036  92  12  648
1477468324.950:   -980  92  12  648
1477468324.950:   -973  92  12  648
1477468324.952:   -975  92  12  648
1477468324.963:   -942  92  12  648
1477468324.964:   -867  92  12  648
1477468324.964:   -781  92  12  648
1477468324.965:   -708  92  12  648
1477468324.965:   -641  92  12  648
1477468324.965:   -560  92  12  648
1477468324.968:   -465  92  12  648
1477468324.968:   -370  92  12  648
1477468324.969:   -280  92  12  648
1477468324.970:   -176  92  12  648
1477468324.980:    -48  92  12  648
1477468324.980:     79  92  12  648
1477468324.981:    158  92  12  648
1477468324.981:    178  92  12  648
1477468324.981:    187  92  12  648
1477468324.981:    234  92  12  648
1477468324.981:    318  92  12  648
1477468324.983:    383  92  12  648
1477468324.985:    390  92  12  648
1477468324.987:    360  92  12  648
1477468324.996:    358  92  12  648
1477468324.996:    417  92  12  648
1477468325.000:    502  92  12  648
1477468325.001:    552  92  12  648
1477468325.001:    548  92  12  648
1477468325.001:    527  92  12  650
1477468325.001:    535  92  12  650
1477468325.006:    580  92  12  650
1477468325.006:    625  92  12  650
1477468325.008:    637  92  12  650
1477468325.009:    616  92  12  650
1477468325.013:    587  92  12  650
1477468325.020:    576  92  12  650
1477468325.020:    584  92  12  650
1477468325.020:    591  92  12  650
1477468325.021:    580  92  12  650
1477468325.021:    554  92  12  650
1477468325.024:    532  92  12  650
1477468325.025:    535  92  12  650
1477468325.028:    558  92  12  650
1477468325.039:    570  92  12  650
1477468325.039:    550  92  12  650
1477468325.040:    514  92  12  650
1477468325.041:    502  92  12  650
1477468325.042:    531  92  12  650
1477468325.043:    572  92  12  650
1477468325.046:    576  92  12  650
1477468325.047:    523  92  12  650
1477468325.056:    447  92  12  650
1477468325.057:    395  92  12  650
1477468325.058:    384  92  12  650
1477468325.059:    388  92  12  650
1477468325.060:    376  92  12  650
1477468325.060:    341  92  12  650
1477468325.062:    310  92  12  650
1477468325.063:    310  92  12  650
1477468325.063:    346  92  12  650
1477468325.064:    390  92  12  650
1477468325.074:    409  92  12  650
1477468325.075:    396  92  12  650
1477468325.076:    366  92  12  650
1477468325.076:    339  92  12  650
1477468325.077:    313  92  12  650
1477468325.078:    274  92  12  650
1477468325.078:    219  92  12  650
1477468325.082:    174  92  12  650
1477468325.083:    169  92  12  650
1477468325.084:    194  92  12  650
1477468325.095:    212  92  12  650
1477468325.096:    198  92  12  650
1477468325.096:    177  92  12  650
1477468325.097:    187  92  12  650
1477468325.098:    227  92  12  650
1477468325.098:    250  92  12  650
1477468325.099:    224  92  12  650
1477468325.100:    172  92  12  650
1477468325.103:    146  92  12  650
1477468325.103:    157  92  12  650
1477468325.115:    160  92  12  650
1477468325.116:    111  92  12  650
1477468325.117:     30  92  12  650
1477468325.118:    -20  92  12  650
1477468325.120:      0  92  12  650
1477468325.121:     66  92  12  650
1477468325.122:    123  92  12  650
1477468325.122:    147  92  12  650
1477468325.122:    154  92  12  650
1477468325.123:    161  92  12  650
1477468325.134:    167  92  12  650
1477468325.134:    162  92  12  650
1477468325.135:    146  92  12  650
1477468325.137:    125  92  12  650
1477468325.138:     99  92  12  650
1477468325.138:     60  92  12  650
1477468325.139:     17  92  12  650
1477468325.140:    -13  92  12  650
1477468325.140:    -10  92  12  650
1477468325.141:     25  92  12  650
1477468325.151:     78  92  12  650
1477468325.151:    131  92  12  650
1477468325.152:    171  92  12  650
1477468325.152:    191  92  12  650
1477468325.152:    191  92  12  650
1477468325.153:    181  92  12  650
1477468325.158:    178  92  12  650
1477468325.158:    188  92  12  650
1477468325.158:    193  92  12  650
1477468325.159:    173  92  12  650
1477468325.162:    129  92  12  650
1477468325.169:     90  92  12  650
1477468325.179:     88  92  12  650
1477468325.180:    124  92  12  650
1477468325.180:    171  92  12  650
1477468325.181:    197  92  12  650
1477468325.181:    198  92  12  650
1477468325.182:    194  92  12  650
1477468325.183:    200  92  12  650
1477468325.183:    206  92  12  650
1477468325.184:    188  92  12  650
1477468325.185:    141  92  12  650
1477468325.185:    103  92  12  650
1477468325.187:    119  92  12  650
1477468325.200:    194  92  12  650
1477468325.201:    273  92  12  650
1477468325.202:    297  92  12  650
1477468325.202:    262  92  12  650
1477468325.203:    224  92  12  650
1477468325.212:    233  92  12  650
1477468325.219:    276  92  12  650
1477468325.219:    294  92  12  650
1477468325.219:    256  92  12  650
1477468325.220:    187  92  12  650
1477468325.220:    139  92  12  650
1477468325.220:    134  92  12  650
1477468325.220:    152  92  12  650
1477468325.220:    166  92  12  650
1477468325.220:    173  92  12  650
1477468325.220:    175  92  12  650
1477468325.221:    167  92  12  650
1477468325.224:    140  92  12  650
1477468325.225:    102  92  12  650
1477468325.227:     76  92  12  650
1477468325.230:     67  92  12  650
1477468325.230:     60  92  12  650
1477468325.233:     34  92  12  650
1477468325.234:     -9  92  12  650
1477468325.238:    -49  92  12  650
1477468325.238:    -70  92  12  650
1477468325.240:    -66  92  12  650
1477468325.241:    -44  92  12  650
1477468325.251:    -11  92  12  650
1477468325.251:     14  92  12  650
1477468325.251:      5  92  12  650
1477468325.253:    -38  92  12  650
1477468325.253:    -76  92  12  650
1477468325.254:    -64  92  12  650
1477468325.255:     -2  92  12  650
1477468325.259:     56  92  12  650
1477468325.260:     63  92  12  650
1477468325.262:     30  92  12  650
1477468325.268:     14  92  12  650
1477468325.268:     46  92  12  650
1477468325.269:     94  92  12  650
1477468325.269:    110  92  12  650
1477468325.271:     89  92  12  650
1477468325.276:     67  92  12  650
1477468325.293:     69  92  12  650
1477468325.293:     86  92  12  650
1477468325.294:     91  92  12  650
1477468325.294:     80  92  12  650
1477468325.294:     75  92  12  650
1477468325.295:     95  92  12  650
1477468325.295:    130  92  12  650
1477468325.295:    148  92  12  650
1477468325.296:    135  92  12  650
1477468325.296:    105  92  12  650
1477468325.297:     80  92  12  650
1477468325.298:     75  92  12  650
1477468325.301:     79  92  12  650
1477468325.302:     71  92  12  650
1477468325.352:     41  92  12  650
1477468325.352:      1  92  12  650
1477468325.352:    -14  92  12  650
1477468325.352:     16  92  12  650
1477468325.352:     81  92  12  650
1477468325.353:    144  92  12  650
1477468325.353:    178  92  12  650
1477468325.353:    181  92  12  650
1477468325.354:    169  92  12  650
1477468325.354:    153  92  12  650
1477468325.354:    128  92  12  650
1477468325.354:     91  92  12  650
1477468325.354:     48  92  12  650
1477468325.355:     13  92  12  650
1477468325.355:    -11  92  12  650
1477468325.355:    -25  92  12  650
1477468325.366:    -27  92  12  650
1477468325.367:     -1  92  12  650
1477468325.367:     56  92  12  650
1477468325.367:    126  92  12  650
1477468325.367:    167  92  12  650
1477468325.367:    150  92  12  650
1477468325.367:     69  92  12  650
1477468325.368:    -58  92  12  650
1477468325.368:   -210  92  12  650
1477468325.368:   -360  92  12  650
1477468325.368:   -492  92  12  650
1477468325.368:   -615  92  12  650
1477468325.369:   -755  92  12  650
1477468325.370:   -913  92  12  650
1477468325.370:  -1024  92  12  650
1477468325.370:   -990  92  12  650
1477468325.370:   -775  92  12  650
1477468325.370:   -475  92  12  650
1477468325.372:   -257  92  12  650
1477468325.373:   -190  92  12  650
1477468325.374:   -160  92  12  650
1477468325.378:     21  92  12  650
1477468325.379:    423  92  12  650
1477468325.381:    915  92  12  650
1477468325.381:   1301  92  12  650
1477468325.383:   1495  92  12  650
1477468325.385:   1573  92  12  650
1477468325.389:   1657  92  12  650
1477468325.401:   1786  92  12  650
1477468325.402:   1898  92  12  650
1477468325.402:   1902  92  12  650
1477468325.403:   1746  92  12  650
1477468325.404:   1439  92  12  650
1477468325.404:   1043  92  12  650
1477468325.406:    646  92  12  650
1477468325.408:    322  92  12  650
1477468325.410:     88  92  12  650
1477468325.410:    -95  92  12  650
1477468325.422:   -271  92  12  650
1477468325.422:   -431  92  12  650
1477468325.422:   -524  92  12  650
1477468325.422:   -517  92  12  650
1477468325.423:   -429  92  12  650
1477468325.423:   -305  92  12  650
1477468325.423:   -184  92  12  650
1477468325.424:    -87  92  12  650
1477468325.424:    -31  92  12  650
1477468325.426:    -29  92  12  650
1477468325.429:    -77  92  12  650
1477468325.432:   -142  92  12  650
1477468325.444:   -189  92  12  650
1477468325.444:   -207  92  12  650
1477468325.444:   -209  92  12  650
1477468325.444:   -210  92  12  650
1477468325.444:   -208  92  12  650
1477468325.445:   -200  92  12  650
1477468325.447:   -194  92  12  650
1477468325.447:   -199  92  12  650
1477468325.452:   -204  92  12  650
1477468325.455:   -182  92  12  650
1477468325.456:   -127  92  12  650
1477468325.457:    -71  92  12  650
1477468325.458:    -68  92  12  650
1477468325.461:   -134  92  12  650
1477468325.473:   -230  92  12  650
1477468325.473:   -295  92  12  650
1477468325.473:   -304  92  12  650
1477468325.474:   -279  92  12  650
1477468325.474:   -258  92  12  650
1477468325.474:   -253  92  12  650
1477468325.474:   -250  92  12  650
1477468325.474:   -242  92  12  650
1477468325.480:   -237  92  12  650
1477468325.481:   -243  92  12  650
1477468325.481:   -255  92  12  650
1477468325.481:   -265  92  12  650
1477468325.483:   -287  92  12  650
1477468325.487:   -347  92  12  650
1477468325.488:   -446  92  12  650
1477468325.495:   -537  92  12  650
1477468325.495:   -563  92  12  650
1477468325.495:   -517  92  12  650
1477468325.497:   -457  92  12  650
1477468325.498:   -447  92  12  650
1477468325.499:   -504  92  12  650
1477468325.500:   -578  92  12  650
1477468325.505:   -613  92  12  650
1477468325.505:   -599  92  12  650
1477468325.517:   -578  92  12  650
1477468325.518:   -592  92  12  650
1477468325.519:   -641  92  12  650
1477468325.538:   -701  92  12  650
1477468325.539:   -752  92  12  650
1477468325.541:   -796  92  12  650
1477468325.542:   -836  92  12  650
1477468325.544:   -857  92  12  650
1477468325.555:   -842  92  12  650
1477468325.555:   -810  92  12  650
1477468325.556:   -812  92  12  650
1477468325.556:   -871  92  12  650
1477468325.557:   -962  92  12  650
1477468325.557:  -1032  92  12  650
1477468325.557:  -1063  92  12  650
1477468325.557:  -1088  92  12  650
1477468325.557:  -1144  92  12  650
1477468325.557:  -1232  92  12  650
1477468325.558:  -1325  92  12  650
1477468325.558:  -1397  92  12  650
1477468325.558:  -1445  92  12  650
1477468325.558:  -1462  92  12  650
1477468325.558:  -1441  92  12  650
1477468325.559:  -1397  92  12  650
1477468325.559:  -1376  92  12  650
1477468325.560:  -1407  92  12  650
1477468325.560:  -1466  92  12  650
1477468325.561:  -1491  92  12  650
1477468325.564:  -1454  92  12  650
1477468325.565:  -1402  92  12  650
1477468325.574:  -1398  92  12  650
1477468325.574:  -1452  92  12  650
1477468325.576:  -1508  92  12  650
1477468325.576:  -1509  92  12  650
1477468325.576:  -1456  92  12  650
1477468325.577:  -1392  92  12  650
1477468325.578:  -1351  92  12  650
1477468325.579:  -1325  92  12  650
1477468325.580:  -1294  92  12  650
1477468325.587:  -1250  92  12  650
1477468325.593:  -1198  92  12  650
1477468325.593:  -1145  92  12  650
1477468325.595:  -1087  92  12  650
1477468325.595:  -1023  92  12  650
1477468325.596:   -958  92  12  650
1477468325.596:   -898  92  12  650
1477468325.601:   -838  92  12  650
1477468325.602:   -766  92  12  650
1477468325.611:   -682  92  12  650
1477468325.611:   -598  92  12  650
1477468325.611:   -524  92  12  650
1477468325.612:   -456  92  12  650
1477468325.612:   -375  92  12  650
1477468325.613:   -264  92  12  650
1477468325.614:   -129  92  12  650
1477468325.615:     -2  92  12  650
1477468325.620:     90  92  12  650
1477468325.621:    147  92  12  650
1477468325.621:    197  92  12  650
1477468325.622:    262  92  12  650
1477468325.629:    325  92  12  650
1477468325.629:    351  92  12  650
1477468325.629:    324  92  12  650
1477468325.630:    276  92  12  650
1477468325.633:    255  92  12  650
1477468325.634:    281  92  12  650
1477468325.655:    336  92  12  650
1477468325.655:    392  92  12  650
1477468325.656:    443  92  12  650
1477468325.657:    502  92  12  650
1477468325.657:    562  92  12  650
1477468325.658:    598  92  12  650
1477468325.659:    603  92  12  648
1477468325.660:    600  92  12  648
1477468325.664:    618  92  12  648
1477468325.665:    651  92  12  648
1477468325.665:    662  92  12  648
1477468325.665:    629  92  12  648
1477468325.665:    573  92  12  648
1477468325.666:    534  92  12  648
1477468325.666:    533  92  12  648
1477468325.666:    551  92  12  648
1477468325.668:    565  92  12  648
1477468325.669:    564  92  12  648
1477468325.683:    548  92  12  648
1477468325.683:    520  92  12  648
1477468325.684:    485  92  12  648
1477468325.684:    460  92  12  648
1477468325.684:    465  92  12  648
1477468325.684:    495  92  12  648
1477468325.685:    520  92  12  648
1477468325.686:    518  92  12  648
1477468325.688:    499  92  12  648
1477468325.692:    487  92  12  648
1477468325.705:    493  92  12  648
1477468325.706:    496  92  12  648
1477468325.706:    474  92  12  648
1477468325.706:    443  92  12  648
1477468325.706:    437  92  12  648
1477468325.706:    469  92  12  648
1477468325.706:    505  92  12  648
1477468325.706:    503  92  12  648
1477468325.710:    459  92  12  648
1477468325.711:    410  92  12  648
1477468325.712:    392  92  12  648
1477468325.714:    401  92  12  648
1477468325.715:    405  92  12  648
1477468325.721:    385  92  12  648
1477468325.731:    354  92  12  648
1477468325.731:    330  92  12  648
1477468325.731:    320  92  12  648
1477468325.732:    317  92  12  648
1477468325.732:    317  92  12  648
1477468325.732:    319  92  12  648
1477468325.732:    318  92  12  648
1477468325.733:    303  92  12  648
1477468325.737:    278  92  12  648
1477468325.737:    257  92  12  648
1477468325.739:    250  92  12  648
1477468325.742:    247  92  12  648
1477468325.753:    227  92  12  648
1477468325.754:    190  92  12  648
1477468325.754:    151  92  12  648
1477468325.754:    125  92  12  648
1477468325.755:    115  92  12  648
1477468325.755:    108  92  12  648
1477468325.756:     99  92  12  648
1477468325.757:     91  92  12  648
1477468325.758:     88  92  12  648
1477468325.759:     86  92  12  648
1477468325.765:     85  92  12  648
1477468325.765:     90  92  12  648
1477468325.779:    108  92  12  648
1477468325.780:    138  92  12  648
1477468325.780:    168  92  12  648
1477468325.781:    188  92  12  648
1477468325.782:    194  92  12  648
1477468325.782:    190  92  12  648
1477468325.783:    178  92  12  648
1477468325.783:    162  92  12  648
1477468325.784:    145  92  12  648
1477468325.784:    128  92  12  648
1477468325.793:    110  92  12  648
1477468325.799:     94  92  12  648
1477468325.809:     89  92  12  648
1477468325.810:    107  92  12  648
1477468325.810:    152  92  12  648
1477468325.810:    203  92  12  648
1477468325.810:    231  92  12  648
1477468325.810:    221  92  12  648
1477468325.810:    188  92  12  648
1477468325.811:    167  92  12  648
1477468325.811:    178  92  12  648
1477468325.811:    213  92  12  648
1477468325.811:    243  92  12  648
1477468325.812:    250  92  12  648
1477468325.816:    244  92  12  648
1477468325.816:    247  92  12  648
1477468325.820:    270  92  12  648
1477468325.820:    296  92  12  648
1477468325.822:    298  92  12  648
1477468325.824:    270  92  12  648
1477468325.835:    234  92  12  648
1477468325.835:    214  92  12  648
1477468325.835:    209  92  12  648
1477468325.835:    202  92  12  648
1477468325.835:    180  92  12  648
1477468325.835:    157  92  12  648
1477468325.839:    157  92  12  648
1477468325.839:    176  92  12  648
1477468325.840:    189  92  12  648
1477468325.843:    170  92  12  648
1477468325.849:    127  92  12  648
1477468325.849:     90  92  12  648
1477468325.856:     69  92  12  648
1477468325.856:     45  92  12  648
1477468325.856:     -2  92  12  648
1477468325.859:    -61  92  12  648
1477468325.860:    -97  92  12  648
1477468325.860:    -87  92  12  648
1477468325.862:    -48  92  12  648
1477468325.865:    -19  92  12  648
1477468325.865:    -23  92  12  648
1477468325.866:    -53  92  12  648
1477468325.877:    -80  92  12  648
1477468325.877:    -87  92  12  648
1477468325.877:    -86  92  12  648
1477468325.877:    -98  92  12  648
1477468325.878:   -131  92  12  648
1477468325.878:   -161  92  12  648
1477468325.879:   -152  92  12  648
1477468325.887:    -89  92  12  648
1477468325.887:     -2  92  12  648
1477468325.888:     63  92  12  648
1477468325.891:     88  92  12  648
1477468325.893:     98  92  12  648
1477468325.894:    124  92  12  648
1477468325.897:    166  92  12  648
1477468325.899:    192  92  12  648
1477468325.899:    180  92  12  648
1477468325.903:    143  92  12  648
1477468325.904:    114  92  12  648
1477468325.907:    107  92  12  648
1477468325.908:    110  92  12  648
1477468325.909:    108  92  12  648
1477468325.913:    101  92  12  648
1477468325.915:     96  92  12  648
1477468325.916:     92  92  12  648
1477468325.917:     90  92  12  648
1477468325.919:     89  92  12  648
1477468325.941:     84  92  12  648
1477468325.942:     66  92  12  648
1477468325.942:     31  92  12  648
1477468325.942:    -10  92  12  648
1477468325.942:    -38  92  12  648
1477468325.942:    -40  92  12  648
1477468325.943:    -24  92  12  648
1477468325.943:     -7  92  12  648
1477468325.943:      3  92  12  648
1477468325.943:     14  92  12  648
1477468325.946:     26  92  12  648
1477468325.948:     24  92  12  648
1477468325.950:      1  92  12  648
1477468325.950:    -24  92  12  648
1477468325.957:    -20  92  12  648
1477468325.957:     14  92  12  648
1477468325.970:     33  92  12  648
1477468326.040:      1  92  12  648
1477468326.040:    -67  92  12  648
1477468326.040:    -99  92  12  648
1477468326.040:    -48  92  12  648
1477468326.040:     48  92  12  648
1477468326.041:     95  92  12  648
1477468326.041:     40  92  12  648
1477468326.041:    -76  92  12  648
1477468326.041:   -173  92  12  648
1477468326.043:   -228  92  12  648
1477468326.043:   -297  92  12  648
1477468326.043:   -437  92  12  648
1477468326.043:   -633  92  12  648
1477468326.043:   -822  92  12  648
1477468326.044:   -962  92  12  648
1477468326.044:  -1043  92  12  648
1477468326.044:  -1047  92  12  648
1477468326.044:   -939  92  12  648
1477468326.044:   -726  92  12  648
1477468326.044:   -508  92  12  648
1477468326.045:   -389  92  12  648
1477468326.045:   -353  92  12  648
1477468326.045:   -252  92  12  648
1477468326.045:     50  92  12  648
1477468326.045:    515  92  12  648
1477468326.046:    958  92  12  648
1477468326.046:   1222  92  12  648
1477468326.046:   1314  92  12  648
1477468326.046:   1363  92  12  648
1477468326.046:   1473  92  12  648
1477468326.047:   1634  92  12  648
1477468326.047:   1748  92  12  648
1477468326.048:   1721  92  12  648
1477468326.048:   1516  92  12  648
1477468326.048:   1166  92  12  648
1477468326.048:    760  92  12  648
1477468326.049:    399  92  12  648
1477468326.049:    140  92  12  648
1477468326.049:    -37  92  12  648
1477468326.049:   -202  92  12  648
1477468326.049:   -391  92  12  648
1477468326.049:   -561  92  12  648
1477468326.049:   -631  92  12  648
1477468326.050:   -566  92  12  648
1477468326.052:   -419  92  12  648
1477468326.068:   -280  92  12  648
1477468326.068:   -202  92  12  648
1477468326.068:   -171  92  12  648
1477468326.068:   -148  92  12  648
1477468326.068:   -118  92  12  648
1477468326.068:   -100  92  12  648
1477468326.068:   -109  92  12  648
1477468326.069:   -131  92  12  648
1477468326.069:   -138  92  12  648
1477468326.069:   -126  92  12  648
1477468326.069:   -119  92  12  648
1477468326.069:   -141  92  12  648
1477468326.073:   -181  92  12  648
1477468326.073:   -208  92  12  648
1477468326.077:   -203  92  12  648
1477468326.080:   -178  92  12  648
1477468326.093:   -162  92  12  648
1477468326.093:   -171  92  12  648
1477468326.094:   -190  92  12  648
1477468326.095:   -200  92  12  648
1477468326.096:   -202  92  12  648
1477468326.097:   -219  92  12  648
1477468326.098:   -273  92  12  648
1477468326.098:   -355  92  12  648
1477468326.099:   -424  92  12  648
1477468326.099:   -441  92  12  648
1477468326.100:   -401  92  12  648
1477468326.101:   -337  92  12  648
1477468326.101:   -288  92  12  648
1477468326.103:   -270  92  12  648
1477468326.104:   -270  92  12  648
1477468326.104:   -270  92  12  648
1477468326.104:   -274  92  12  648
1477468326.109:   -293  92  12  648
1477468326.109:   -327  92  12  648
1477468326.115:   -361  92  12  648
1477468326.127:   -388  92  12  648
1477468326.128:   -425  92  12  648
1477468326.128:   -492  92  12  648
1477468326.129:   -582  92  12  648
1477468326.133:   -649  92  12  648
1477468326.134:   -652  92  12  648
1477468326.139:   -603  92  12  648
1477468326.143:   -559  92  12  648
1477468326.146:   -568  92  12  648
1477468326.147:   -623  92  12  648
1477468326.148:   -677  92  12  648
1477468326.148:   -692  92  12  648
1477468326.149:   -677  92  12  648
1477468326.150:   -677  92  12  648
1477468326.153:   -721  92  12  648
1477468326.156:   -798  92  12  648
1477468326.157:   -869  92  12  648
1477468326.158:   -910  92  12  648
1477468326.162:   -925  92  12  648
1477468326.163:   -940  92  12  648
1477468326.164:   -963  92  12  648
1477468326.165:   -987  92  12  648
1477468326.166:  -1001  92  12  648
1477468326.167:  -1019  92  12  648
1477468326.167:  -1063  92  12  648
1477468326.175:  -1145  92  12  648
1477468326.185:  -1245  92  12  648
1477468326.185:  -1326  92  12  648
1477468326.187:  -1372  92  12  648
1477468326.188:  -1400  92  12  648
1477468326.191:  -1441  92  12  648
1477468326.191:  -1501  92  12  648
1477468326.193:  -1554  92  12  648
1477468326.194:  -1570  92  12  648
1477468326.203:  -1538  92  12  648
1477468326.204:  -1480  92  12  648
1477468326.205:  -1431  92  12  648
1477468326.206:  -1413  92  12  648
1477468326.206:  -1424  92  12  648
1477468326.207:  -1443  92  12  648
1477468326.208:  -1443  92  12  648
1477468326.209:  -1414  92  12  648
1477468326.209:  -1370  92  12  648
1477468326.210:  -1335  92  12  648
1477468326.211:  -1322  92  12  648
1477468326.211:  -1316  92  12  648
1477468326.223:  -1288  92  12  648
1477468326.223:  -1230  92  12  648
1477468326.223:  -1161  92  12  648
1477468326.224:  -1105  92  12  648
1477468326.224:  -1058  92  12  648
1477468326.224:   -997  92  12  648
1477468326.224:   -908  92  12  648
1477468326.225:   -810  92  12  648
1477468326.225:   -732  92  12  648
1477468326.225:   -678  92  12  648
1477468326.225:   -620  92  12  648
1477468326.227:   -528  92  12  648
1477468326.228:   -400  92  12  648
1477468326.229:   -273  92  12  648
1477468326.234:   -171  92  12  648
1477468326.235:    -92  92  12  648
1477468326.241:    -18  92  12  648
1477468326.242:     59  92  12  648
1477468326.242:    125  92  12  648
1477468326.243:    170  92  12  648
1477468326.244:    197  92  12  648
1477468326.249:    223  92  12  648
1477468326.250:    258  92  12  648
1477468326.251:    299  92  12  648
1477468326.252:    340  92  12  648
1477468326.253:    386  92  12  648
1477468326.256:    450  92  12  648
1477468326.257:    531  92  12  648
1477468326.261:    613  92  12  648
1477468326.262:    676  92  12  648
1477468326.276:    721  92  12  648
1477468326.276:    758  92  12  648
1477468326.277:    798  92  12  648
1477468326.279:    825  92  12  648
1477468326.280:    819  92  12  648
1477468326.280:    778  92  12  648
1477468326.282:    731  92  12  648
1477468326.283:    709  92  12  648
1477468326.283:    720  92  12  648
1477468326.284:    740  92  12  648
1477468326.317:    740  92  12  648
1477468326.317:    720  92  12  648
1477468326.318:    703  92  12  648
1477468326.319:    708  92  12  648
1477468326.320:    739  92  12  648
1477468326.321:    781  92  12  648
1477468326.321:    812  92  12  648
1477468326.322:    818  92  12  648
1477468326.323:    798  92  12  648
1477468326.323:    763  92  12  648
1477468326.324:    736  92  12  648
1477468326.324:    729  92  12  648
1477468326.325:    742  92  12  648
1477468326.326:    759  92  12  648
1477468326.337:    766  92  12  648
1477468326.338:    753  92  12  648
1477468326.339:    721  92  12  648
1477468326.340:    681  91  12  649
1477468326.341:    649  91  12  649
1477468326.342:    637  91  12  649
1477468326.342:    634  91  12  649
1477468326.343:    624  91  12  649
1477468326.344:    604  91  12  649
1477468326.345:    587  91  12  649
1477468326.358:    586  91  12  649
1477468326.359:    592  91  12  649
1477468326.360:    584  91  12  649
1477468326.360:    568  91  12  649
1477468326.361:    573  91  12  649
1477468326.364:    616  91  12  649
1477468326.364:    672  91  12  649
1477468326.365:    685  91  12  649
1477468326.366:    629  91  12  649
1477468326.367:    542  91  12  649
1477468326.378:    486  91  12  649
1477468326.378:    490  91  12  649
1477468326.378:    523  91  12  649
1477468326.378:    534  91  12  649
1477468326.378:    497  91  12  649
1477468326.378:    433  91  12  649
1477468326.379:    383  91  12  649
1477468326.379:    375  91  12  649
1477468326.379:    404  91  12  649
1477468326.379:    443  91  12  649
1477468326.379:    461  91  12  649
1477468326.379:    444  91  12  649
1477468326.379:    405  91  12  649
1477468326.380:    372  91  12  649
1477468326.380:    369  91  12  649
1477468326.380:    395  91  12  649
1477468326.380:    431  91  12  649
1477468326.384:    452  91  12  649
1477468326.384:    443  91  12  649
1477468326.388:    411  91  12  649
1477468326.388:    370  91  12  649
1477468326.390:    339  91  12  649
1477468326.391:    329  91  12  649
1477468326.394:    340  91  12  649
1477468326.397:    362  91  12  649
1477468326.397:    378  91  12  649
1477468326.398:    379  91  12  649
1477468326.403:    366  91  12  649
1477468326.429:    354  91  12  649
1477468326.430:    350  91  12  649
1477468326.431:    350  91  12  649
1477468326.431:    343  91  12  649
1477468326.432:    325  91  12  649
1477468326.433:    300  91  12  649
1477468326.433:    277  91  12  649
1477468326.434:    260  91  12  649
1477468326.435:    249  91  12  649
1477468326.437:    251  91  12  649
1477468326.438:    275  91  12  649
1477468326.438:    317  91  12  649
1477468326.465:    359  91  12  649
1477468326.467:    376  91  12  649
1477468326.467:    368  91  12  649
1477468326.468:    361  91  12  649
1477468326.470:    387  91  12  649
1477468326.472:    450  91  12  649
1477468326.472:    513  91  12  649
1477468326.473:    532  91  12  649
1477468326.474:    497  91  12  649
1477468326.474:    438  91  12  649
1477468326.475:    397  91  12  649
1477468326.476:    384  91  12  649
1477468326.476:    374  91  12  649
1477468326.477:    341  91  12  649
1477468326.491:    290  91  12  649
1477468326.492:    245  91  12  649
1477468326.492:    219  91  12  649
1477468326.493:    207  91  12  649
1477468326.493:    204  91  12  649
1477468326.496:    216  91  12  649
1477468326.496:    245  91  12  649
1477468326.496:    276  91  12  649
1477468326.496:    286  91  12  649
1477468326.496:    269  91  12  649
1477468326.497:    247  91  12  649
1477468326.497:    238  91  12  649
1477468326.497:    237  91  12  649
1477468326.498:    219  91  12  649
1477468326.498:    175  91  12  649
1477468326.498:    124  91  12  649
1477468326.509:     91  91  12  649
1477468326.509:     79  91  12  649
1477468326.509:     76  91  12  649
1477468326.510:     69  91  12  649
1477468326.510:     59  91  12  649
1477468326.510:     55  91  12  649
1477468326.512:     54  91  12  649
1477468326.512:     46  91  12  649
1477468326.512:     28  91  12  649
1477468326.512:      9  91  12  649
1477468326.512:      6  91  12  649
1477468326.512:     30  91  12  649
1477468326.512:     71  91  12  649
1477468326.514:    118  91  12  649
1477468326.514:    172  91  12  649
1477468326.514:    246  91  12  649
1477468326.519:    338  91  12  649
1477468326.521:    416  91  12  649
1477468326.521:    434  91  12  649
1477468326.522:    386  91  12  649
1477468326.529:    308  91  12  649
1477468326.529:    252  91  12  649
1477468326.546:    230  91  12  649
1477468326.547:    210  91  12  649
1477468326.548:    159  91  12  649
1477468326.549:     86  91  12  649
1477468326.550:     37  91  12  649
1477468326.550:     49  91  12  649
1477468326.551:    113  91  12  649
1477468326.552:    189  91  12  649
1477468326.552:    242  91  12  649
1477468326.553:    258  91  12  649
1477468326.553:    245  91  12  649
1477468326.554:    220  91  12  649
1477468326.555:    204  91  12  649
1477468326.556:    210  91  12  649
1477468326.568:    238  91  12  649
1477468326.570:    266  91  12  649
1477468326.572:    266  91  12  649
1477468326.572:    241  91  12  649
1477468326.574:    218  91  12  649
1477468326.575:    228  91  12  649
1477468326.586:    264  91  12  649
1477468326.586:    287  91  12  649
1477468326.587:    263  91  12  649
1477468326.587:    202  91  12  649
1477468326.587:    143  91  12  649
1477468326.587:    114  91  12  649
1477468326.587:    107  91  12  649
1477468326.587:     94  91  12  649
1477468326.587:     67  91  12  649
1477468326.588:     54  91  12  649
1477468326.588:     77  91  12  649
1477468326.590:    121  91  12  649
1477468326.591:    141  91  12  649
1477468326.598:    102  91  12  649
1477468326.598:      7  91  12  649
1477468326.599:   -113  91  12  649
1477468326.603:   -229  91  12  649
1477468326.607:   -329  91  12  649
1477468326.607:   -409  91  12  649
1477468326.607:   -490  91  12  649
1477468326.608:   -612  91  12  649
1477468326.609:   -794  91  12  649
1477468326.613:   -973  91  12  649
1477468326.614:  -1036  91  12  649
1477468326.627:   -917  91  12  649
1477468326.628:   -701  91  12  649
1477468326.628:   -574  91  12  649
1477468326.628:   -625  91  12  649
1477468326.629:   -721  91  12  649
1477468326.629:   -602  91  12  649
1477468326.630:   -135  91  12  649
1477468326.630:    542  91  12  649
1477468326.633:   1136  91  12  649
1477468326.634:   1466  91  12  649
1477468326.638:   1583  91  12  649
1477468326.638:   1670  91  12  649
1477468326.645:   1835  91  12  649
1477468326.725:   2017  91  12  649
1477468326.734:   2071  91  12  649
1477468326.734:   1903  91  12  649
1477468326.734:   1530  91  12  649
1477468326.734:   1055  91  12  649
1477468326.735:    595  91  12  649
1477468326.735:    226  91  12  649
1477468326.735:    -30  91  12  649
1477468326.735:   -202  91  12  649
1477468326.735:   -330  91  12  649
1477468326.736:   -434  91  12  649
1477468326.736:   -506  91  12  649
1477468326.736:   -528  91  12  649
1477468326.736:   -493  91  12  649
1477468326.737:   -410  91  12  649
1477468326.737:   -299  91  12  649
1477468326.737:   -185  91  12  649
1477468326.737:    -98  91  12  649
1477468326.737:    -66  91  12  649
1477468326.738:    -89  91  12  649
1477468326.738:   -139  91  12  649
1477468326.738:   -168  91  12  649
1477468326.738:   -153  91  12  649
1477468326.738:   -109  91  12  649
1477468326.738:    -81  91  12  649
1477468326.739:   -105  91  12  649
1477468326.739:   -180  91  12  649
1477468326.739:   -264  91  12  649
1477468326.739:   -315  91  12  649
1477468326.739:   -317  91  12  649
1477468326.740:   -288  91  12  649
1477468326.740:   -265  91  12  649
1477468326.740:   -277  91  12  649
1477468326.740:   -321  91  12  649
1477468326.740:   -371  91  12  649
1477468326.740:   -395  91  12  649
1477468326.740:   -378  91  12  649
1477468326.741:   -335  91  12  649
1477468326.741:   -299  91  12  649
1477468326.741:   -297  91  12  649
1477468326.741:   -318  91  12  649
1477468326.743:   -330  91  12  649
1477468326.743:   -305  91  12  649
1477468326.745:   -264  91  12  649
1477468326.747:   -251  91  12  649
1477468326.747:   -300  91  12  649
1477468326.748:   -394  91  12  649
1477468326.749:   -479  91  12  649
1477468326.750:   -517  91  12  649
1477468326.751:   -512  91  12  649
1477468326.752:   -493  91  12  649
1477468326.763:   -481  91  12  649
1477468326.764:   -478  91  12  649
1477468326.765:   -482  91  12  649
1477468326.765:   -498  91  12  649
1477468326.766:   -525  91  12  649
1477468326.767:   -540  91  12  649
1477468326.767:   -529  91  12  649
1477468326.768:   -513  91  12  649
1477468326.769:   -531  91  12  649
1477468326.769:   -600  91  12  649
1477468326.770:   -682  91  12  649
1477468326.771:   -732  91  12  649
1477468326.785:   -754  91  12  649
1477468326.786:   -792  91  12  649
1477468326.787:   -870  91  12  649
1477468326.787:   -948  91  12  649
1477468326.788:   -975  91  12  649
1477468326.789:   -950  91  12  649
1477468326.789:   -923  91  12  649
1477468326.791:   -941  91  12  649
1477468326.791:   -999  91  12  649
1477468326.792:  -1062  91  12  649
1477468326.793:  -1115  91  12  649
1477468326.793:  -1169  91  12  649
1477468326.794:  -1240  91  12  649
1477468326.802:  -1326  91  12  649
1477468326.815:  -1418  91  12  649
1477468326.820:  -1514  91  12  649
1477468326.822:  -1615  91  12  649
1477468326.825:  -1698  91  12  649
1477468326.837:  -1734  91  12  649
1477468326.837:  -1712  91  12  649
1477468326.837:  -1658  91  12  649
1477468326.837:  -1618  91  12  649
1477468326.837:  -1622  91  12  649
1477468326.837:  -1662  91  12  649
1477468326.837:  -1712  91  12  649
1477468326.838:  -1748  91  12  649
1477468326.838:  -1764  91  12  649
1477468326.838:  -1772  91  12  649
1477468326.838:  -1781  91  12  649
1477468326.838:  -1783  91  12  649
1477468326.838:  -1760  91  12  649
1477468326.838:  -1701  91  12  649
1477468326.839:  -1611  91  12  649
1477468326.839:  -1513  91  12  649
1477468326.839:  -1418  91  12  649
1477468326.839:  -1328  91  12  649
1477468326.839:  -1244  91  12  649
1477468326.839:  -1181  91  12  649
1477468326.839:  -1147  91  12  649
1477468326.841:  -1131  91  12  649
1477468326.847:  -1108  91  12  649
1477468326.848:  -1057  91  12  649
1477468326.857:   -983  91  12  649
1477468326.857:   -903  91  12  649
1477468326.857:   -826  91  12  649
1477468326.857:   -741  91  12  649
1477468326.857:   -635  91  12  649
1477468326.858:   -506  91  12  649
1477468326.859:   -372  91  12  649
1477468326.862:   -253  91  12  649
1477468326.875:   -164  91  12  649
1477468326.876:   -101  91  12  649
1477468326.876:    -42  91  12  649
1477468326.877:     29  91  12  649
1477468326.877:    111  91  12  649
1477468326.877:    184  91  12  649
1477468326.879:    235  91  12  649
1477468326.882:    275  91  12  649
1477468326.882:    331  91  12  649
1477468326.883:    410  91  12  649
1477468326.885:    491  91  12  649
1477468326.887:    547  91  12  649
1477468326.894:    573  91  12  649
1477468326.895:    589  91  12  649
1477468326.896:    613  91  12  649
1477468326.897:    638  91  12  649
1477468326.898:    653  91  12  649
1477468326.899:    668  91  12  649
1477468326.926:    697  91  12  649
1477468326.927:    744  91  12  649
1477468326.928:    792  91  12  649
1477468326.928:    826  91  12  649
1477468326.929:    846  91  12  649
1477468326.929:    860  91  12  649
1477468326.931:    868  91  12  649
1477468326.932:    861  91  12  649
1477468326.933:    843  91  12  649
1477468326.935:    826  91  12  649
1477468326.936:    817  91  12  649
1477468326.936:    802  91  12  649
1477468326.948:    768  91  12  649
1477468326.949:    724  91  12  649
1477468326.950:    698  91  12  649
1477468326.951:    702  91  12  649
1477468326.952:    724  91  12  649
1477468326.952:    739  91  12  649
1477468326.953:    734  91  12  649
1477468326.954:    717  91  12  649
1477468326.955:    696  92  12  649
1477468326.955:    674  92  12  649
1477468326.956:    654  92  12  649
1477468326.957:    644  92  12  649
1477468326.967:    649  92  12  649
1477468326.968:    659  92  12  649
1477468326.969:    651  92  12  649
1477468326.970:    621  92  12  649
1477468326.971:    587  92  12  649
1477468326.971:    575  92  12  649
1477468326.972:    589  92  12  649
1477468326.973:    607  92  12  649
1477468326.973:    602  92  12  649
1477468326.974:    573  92  12  649
1477468326.975:    542  92  12  649
1477468326.975:    527  92  12  649
1477468326.986:    525  92  12  649
1477468326.988:    523  92  12  649
1477468326.989:    512  92  12  649
1477468326.989:    495  92  12  649
1477468326.990:    476  92  12  649
1477468326.990:    449  92  12  649
1477468326.991:    407  92  12  649
1477468326.992:    358  92  12  649
1477468327.003:    319  92  12  649
1477468327.004:    302  92  12  649
1477468327.006:    301  92  12  649
1477468327.006:    303  92  12  649
1477468327.007:    306  92  12  649
1477468327.008:    321  92  12  649
1477468327.008:    352  92  12  649
1477468327.009:    386  92  12  649
1477468327.020:    401  92  12  649
1477468327.021:    390  92  12  649
1477468327.022:    365  92  12  649
1477468327.022:    343  92  12  649
1477468327.023:    321  92  12  649
1477468327.023:    288  92  12  649
1477468327.024:    245  92  12  649
1477468327.024:    216  92  12  649
1477468327.025:    225  92  12  649
1477468327.025:    269  92  12  649
1477468327.026:    315  92  12  649
1477468327.026:    338  92  12  649
1477468327.027:    344  92  12  649
1477468327.028:    358  92  12  649
1477468327.038:    387  92  12  649
1477468327.039:    412  92  12  649
1477468327.040:    404  92  12  649
1477468327.040:    363  92  12  649
1477468327.041:    323  92  12  649
1477468327.041:    319  92  12  649
1477468327.042:    353  92  12  649
1477468327.042:    392  92  12  649
1477468327.043:    403  92  12  649
1477468327.049:    388  92  12  649
1477468327.057:    381  92  12  649
1477468327.057:    404  92  12  649
1477468327.058:    451  92  12  649
1477468327.059:    485  92  12  649
1477468327.060:    481  92  12  649
1477468327.061:    445  92  12  649
1477468327.064:    405  92  12  649
1477468327.066:    389  92  12  649
1477468327.067:    398  92  12  649
1477468327.067:    418  92  12  649
1477468327.068:    434  92  12  649
1477468327.070:    438  92  12  649
1477468327.070:    434  92  12  649
1477468327.073:    434  92  12  649
1477468327.077:    450  92  12  649
1477468327.078:    478  92  12  649
1477468327.103:    502  92  12  649
1477468327.104:    503  92  12  649
1477468327.105:    482  92  12  649
1477468327.106:    461  92  12  649
1477468327.106:    458  92  12  649
1477468327.108:    466  92  12  649
1477468327.109:    467  92  12  649
1477468327.109:    456  92  12  649
1477468327.110:    441  92  12  649
1477468327.113:    435  92  12  649
1477468327.113:    431  92  12  649
1477468327.114:    417  92  12  649
1477468327.114:    384  92  12  649
1477468327.114:    337  92  12  649
1477468327.114:    290  92  12  649
1477468327.115:    257  92  12  649
1477468327.115:    247  92  12  649
1477468327.115:    263  92  12  649
1477468327.115:    288  92  12  649
1477468327.118:    292  92  12  649
1477468327.133:    256  92  12  649
1477468327.134:    203  92  12  649
1477468327.134:    175  92  12  649
1477468327.134:    190  92  12  649
1477468327.134:    220  92  12  649
1477468327.134:    218  92  12  649
1477468327.134:    168  92  12  649
1477468327.135:    100  92  12  649
1477468327.138:     57  92  12  649
1477468327.138:     60  92  12  649
1477468327.139:     98  92  12  649
1477468327.140:    142  92  12  649
1477468327.141:    167  92  12  649
1477468327.147:    161  92  12  649
1477468327.156:    138  92  12  649
1477468327.156:    136  92  12  649
1477468327.156:    181  92  12  649
1477468327.156:    260  92  12  649
1477468327.156:    324  92  12  649
