timestamp: ADC HeartRate4sAverage HeartRate30sAverage HRV8sAverage
1477479921.602:    723  53   7 1108
1477479921.603:    706  53   7 1108
1477479921.612:    661  53   7 1108
1477479921.612:    611  53   7 1108
1477479921.612:    590  53   7 1108
1477479921.612:    604  53   7 1108
1477479921.612:    627  53   7 1108
1477479921.669:    627  53   7 1108
1477479921.722:    602  53   7 1108
1477479921.722:    576  53   7 1108
1477479921.723:    576  53   7 1108
1477479921.723:    600  53   7 1108
1477479921.723:    628  53   7 1108
1477479921.738:  -1407  53   7 1108
1477479921.741:  -1465  53   7 1108
1477479921.741:  -1480  53   7 1108
1477479921.741:  -1499  53   7 1108
1477479921.741:  -1525  53   7 1108
1477479921.741:  -1551  53   7 1108
1477479921.741:  -1596  53   7 1108
1477479921.806:  -1695  53   7 1108
1477479921.806:  -1846  53   7 1108
1477479921.806:  -1987  53   7 1108
1477479921.807:  -2042  53   7 1108
1477479921.807:  -1998  53   7 1108
1477479921.807:  -1920  53   7 1108
1477479921.807:  -1884  53   7 1108
1477479921.807:  -1908  53   7 1108
1477479921.872:   -769  53   7 1108
1477479921.873:   -752  53   7 1108
1477479921.876:   -750  53   7 1108
1477479921.876:   -764  53   7 1108
1477479921.876:   -773  53   7 1108
1477479921.877:   -760  53   7 1108
1477479921.877:   -738  53   7 1108
1477479921.940:   -727  53   7 1108
1477479921.944:   -728  53   7 1108
1477479921.945:   -722  53   7 1108
1477479921.945:   -699  53   7 1108
1477479921.945:   -669  53   7 1108
1477479921.945:   -655  53   7 1108
1477479921.946:   -666  53   7 1108
1477479921.946:   -688  53   7 1108
1477479922.079:   -340  53   7 1108
1477479922.090:   -312  53   7 1108
1477479922.090:   -276  53   7 1108
1477479922.090:   -232  53   7 1108
1477479922.090:   -189  53   7 1108
1477479922.090:   -152  53   7 1108
1477479922.090:   -119  53   7 1108
1477479922.090:    -83  53   7 1108
1477479922.215:    -41  53   7 1108
1477479922.216:      4  53   7 1108
1477479922.217:     44  53   7 1108
1477479922.221:     80  53   7 1108
1477479922.221:    112  53   7 1108
1477479922.222:    141  53   7 1108
1477479922.222:    170  53   7 1108
1477479922.223:    201  53   7 1108
1477479922.223:    325  53   7 1108
1477479922.224:    322  53   7 1108
1477479922.224:    321  53   7 1108
1477479922.225:    320  53   7 1108
1477479922.225:    316  53   7 1108
1477479922.226:    304  53   7 1108
1477479922.226:    287  53   7 1108
1477479922.252:    270  53   7 1108
1477479922.255:    261  53   7 1108
1477479922.256:    259  53   7 1108
1477479922.257:    256  53   7 1108
1477479922.257:    247  53   7 1108
1477479922.258:    235  53   7 1108
1477479922.259:     82  53   7 1108
1477479922.259:     76  53   7 1108
1477479922.260:     73  53   7 1108
1477479922.260:     77  53   7 1108
1477479922.261:     85  53   7 1108
1477479922.261:     92  53   7 1108
1477479922.275:     96  53   7 1108
1477479922.275:     98  53   7 1108
1477479922.276:    101  53   7 1108
1477479922.277:    106  53   7 1108
1477479922.277:    112  53   7 1108
1477479922.277:    114  53   7 1108
1477479922.278:    112  53   7 1108
1477479922.279:    109  53   7 1108
1477479922.279:    112  53   7 1108
1477479922.280:    117  53   7 1108
1477479922.292:    119  53   7 1108
1477479922.292:    113  53   7 1108
1477479922.292:    105  53   7 1108
1477479922.292:    101  53   7 1108
1477479922.293:    104  53   7 1108
1477479922.293:    106  53   7 1108
1477479922.293:    101  53   7 1108
1477479922.293:     94  53   7 1108
1477479922.293:     95  53   7 1108
1477479922.293:    104  53   7 1108
1477479922.293:    115  53   7 1108
1477479922.293:    119  53   7 1108
1477479922.294:    119  53   7 1108
1477479922.294:    120  53   7 1108
1477479922.294:    125  53   7 1108
1477479922.297:    129  53   7 1108
1477479922.297:    126  53   7 1108
1477479922.297:    122  53   7 1108
1477479922.297:    122  53   7 1108
1477479922.298:    127  53   7 1108
1477479922.298:    131  53   7 1108
1477479922.301:    129  53   7 1108
1477479922.301:    126  53   7 1108
1477479922.301:    124  53   7 1108
1477479922.301:    123  53   7 1108
1477479922.302:    118  53   7 1108
1477479922.302:    110  53   7 1108
1477479922.302:    104  53   7 1108
1477479922.302:    100  53   7 1108
1477479922.302:     88  53   7 1108
1477479922.302:     62  53   7 1108
1477479922.302:     33  53   7 1108
1477479922.303:     20  53   7 1108
1477479922.303:     21  53   7 1108
1477479922.303:      9  53   7 1108
1477479922.303:    -39  53   7 1108
1477479922.303:   -119  53   7 1108
1477479922.303:   -197  53   7 1108
1477479922.303:   -248  53   7 1108
1477479922.304:   -284  53   7 1108
1477479922.304:   -333  53   7 1108
1477479922.304:   -402  53   7 1108
1477479922.304:   -465  53   7 1108
1477479922.304:   -496  53   7 1108
1477479922.304:   -492  53   7 1108
1477479922.304:   -473  53   7 1108
1477479922.305:   -455  53   7 1108
1477479922.305:   -436  53   7 1108
1477479922.305:   -411  53   7 1108
1477479922.305:   -386  53   7 1108
1477479922.305:   -377  53   7 1108
1477479922.306:   -388  53   7 1108
1477479922.306:   -410  53   7 1108
1477479922.306:   -429  53   7 1108
1477479922.306:   -439  53   7 1108
1477479922.306:   -437  53   7 1108
1477479922.306:   -423  53   7 1108
1477479922.307:   -397  53   7 1108
1477479922.307:   -357  53   7 1108
1477479922.307:   -302  53   7 1108
1477479922.307:   -231  53   7 1108
1477479922.307:   -155  53   7 1108
1477479922.307:    -89  53   7 1108
1477479922.307:    -48  53   7 1108
1477479922.308:    -34  53   7 1108
1477479922.308:    -32  53   7 1108
1477479922.308:    -30  53   7 1108
1477479922.308:    -25  53   7 1108
1477479922.308:    -24  53   7 1108
1477479922.308:    -26  53   7 1108
1477479922.309:    -23  53   7 1108
1477479922.309:     -3  53   7 1108
1477479922.309:     33  53   7 1108
1477479922.309:     78  53   7 1108
1477479922.309:    122  53   7 1108
1477479922.309:    161  53   7 1108
1477479922.328:    198  53   7 1108
1477479922.330:    240  53   7 1108
1477479922.331:    287  53   7 1108
1477479922.332:    332  53   7 1108
1477479922.333:    366  53   7 1108
1477479922.333:    387  53   7 1108
1477479922.334:    403  53   7 1108
1477479922.335:    423  53   7 1108
1477479922.335:    444  53   7 1108
1477479922.336:    454  53   7 1108
1477479922.337:    454  53   7 1108
1477479922.337:    454  53   7 1108
1477479922.348:    464  53   7 1108
1477479922.349:    481  53   7 1108
1477479922.350:    488  53   7 1108
1477479922.351:    476  53   7 1108
1477479922.351:    457  53   7 1108
1477479922.352:    443  53   7 1108
1477479922.353:    442  53   7 1108
1477479922.353:    444  53   7 1108
1477479922.354:    442  53   7 1108
1477479922.354:    436  53   7 1108
1477479922.355:    431  53   7 1108
1477479922.356:    426  53   7 1108
1477479922.369:    420  53   7 1108
1477479922.370:    415  53   7 1108
1477479922.370:    415  53   7 1108
1477479922.371:    418  53   7 1108
1477479922.372:    417  53   7 1108
1477479922.372:    406  53   7 1108
1477479922.373:    387  53   7 1108
1477479922.374:    369  53   7 1108
1477479922.374:    359  53   7 1108
1477479922.375:    355  53   7 1108
1477479922.376:    351  53   7 1108
1477479922.376:    343  53   7 1108
1477479922.377:    330  53   7 1108
1477479922.378:    318  53   7 1108
1477479922.379:    312  53   7 1108
1477479922.379:    314  53   7 1108
1477479922.393:    318  53   7 1108
1477479922.394:    319  53   7 1108
1477479922.394:    316  53   7 1108
1477479922.394:    313  53   7 1108
1477479922.394:    308  53   7 1108
1477479922.394:    299  53   7 1108
1477479922.395:    284  53   7 1108
1477479922.395:    267  53   7 1108
1477479922.395:    255  53   7 1108
1477479922.395:    248  53   7 1108
1477479922.395:    244  53   7 1108
1477479922.396:    241  53   7 1108
1477479922.399:    243  53   7 1108
1477479922.399:    251  53   7 1108
1477479922.400:    252  53   7 1108
1477479922.402:    238  53   7 1108
1477479922.403:    220  53   7 1108
1477479922.409:    221  53   7 1108
1477479922.409:    244  53   7 1108
1477479922.412:    263  53   7 1108
1477479922.424:    268  53   7 1108
1477479922.424:    285  53   7 1108
1477479922.425:    346  53   7 1108
1477479922.425:    436  53   7 1108
1477479922.425:    503  53   7 1108
1477479922.425:    525  53   7 1108
1477479922.426:    543  53   7 1108
1477479922.426:    603  53   7 1108
1477479922.428:    677  53   7 1108
1477479922.429:    688  53   7 1108
1477479922.431:    620  53   7 1108
1477479922.435:    581  53   7 1108
1477479922.437:    718  53   7 1108
1477479922.437:   1092  53   7 1108
1477479922.448:   1663  53   7 1108
1477479922.448:   2379  53   7 1108
1477479922.448:   3247  53   7 1108
1477479922.448:   4277  53   7 1108
1477479922.448:   5405  53   7 1108
1477479922.448:   6498  53   7 1108
1477479922.451:   7462  53   7 1108
1477479922.453:   8294  53   7 1108
1477479922.454:   9025  53   7 1108
1477479922.458:   9625  53   7 1108
1477479922.468:  10007  53   7 1108
1477479922.468:  10122  53   7 1108
1477479922.468:  10022  53   7 1108
1477479922.469:   9795  53   7 1108
1477479922.469:   9477  53   7 1108
1477479922.469:   9013  53   7 1108
1477479922.480:   8334  53   7 1108
1477479922.480:   7447  53   7 1108
1477479922.491:   6423  53   7 1108
1477479922.492:   5331  53   7 1108
1477479922.493:   4190  53   7 1108
1477479922.493:   3011  53   7 1108
1477479922.495:   1852  53   7 1108
1477479922.496:    807  53   7 1108
1477479922.497:    -51  53   7 1108
1477479922.498:   -714  53   7 1108
1477479922.510:  -1218  53   7 1108
1477479922.511:  -1579  53   7 1108
1477479922.511:  -1784  53   7 1108
1477479922.512:  -1837  53   7 1108
1477479922.512:  -1800  53   7 1108
1477479922.512:  -1760  53   7 1108
1477479922.513:  -1775  53   7 1108
1477479922.514:  -1847  53   7 1108
1477479922.514:  -1950  53   7 1108
1477479922.515:  -2065  53   7 1108
1477479922.515:  -2180  53   7 1108
1477479922.515:  -2275  53   7 1108
1477479922.516:  -2323  53   7 1108
1477479922.519:  -2318  53   7 1108
1477479922.530:  -2281  53   7 1108
1477479922.532:  -2241  53   7 1108
1477479922.533:  -2213  53   7 1108
1477479922.534:  -2201  53   7 1108
1477479922.534:  -2197  53   7 1108
1477479922.535:  -2196  53   7 1108
1477479922.536:  -2189  53   7 1108
1477479922.536:  -2173  53   7 1108
1477479922.548:  -2146  53   7 1108
1477479922.550:  -2106  53   7 1108
1477479922.550:  -2057  53   7 1108
1477479922.551:  -2007  53   7 1108
1477479922.552:  -1967  53   7 1108
1477479922.553:  -1944  53   7 1108
1477479922.554:  -1933  53   7 1108
1477479922.555:  -1921  53   7 1108
1477479922.567:  -1894  53   7 1108
1477479922.568:  -1855  53   7 1108
1477479922.568:  -1814  53   7 1108
1477479922.568:  -1778  53   7 1108
1477479922.568:  -1749  53   7 1108
1477479922.568:  -1718  53   7 1108
1477479922.568:  -1682  53   7 1108
1477479922.569:  -1645  53   7 1108
1477479922.569:  -1617  53   7 1108
1477479922.569:  -1602  53   7 1108
1477479922.569:  -1596  53   7 1108
1477479922.572:  -1586  53   7 1108
1477479922.572:  -1566  53   7 1108
1477479922.573:  -1541  53   7 1108
1477479922.576:  -1517  53   7 1108
1477479922.577:  -1498  53   7 1108
1477479922.580:  -1480  53   7 1108
1477479922.584:  -1456  53   7 1108
1477479922.592:  -1430  53   7 1108
1477479922.592:  -1411  53   7 1108
1477479922.592:  -1400  53   7 1108
1477479922.593:  -1394  53   7 1108
1477479922.593:  -1383  53   7 1108
1477479922.595:  -1362  53   7 1108
1477479922.595:  -1336  53   7 1108
1477479922.603:  -1312  53   7 1108
1477479922.612:  -1292  53   7 1108
1477479922.612:  -1271  53   7 1108
1477479922.615:  -1246  53   7 1108
1477479922.616:  -1219  53   7 1108
1477479922.616:  -1195  53   7 1108
1477479922.618:  -1179  53   7 1108
1477479922.619:  -1168  53   7 1108
1477479922.619:  -1157  53   7 1108
1477479922.619:  -1142  53   7 1108
1477479922.619:  -1124  53   7 1108
1477479922.620:  -1107  53   7 1108
1477479922.622:  -1096  53   7 1108
1477479922.622:  -1087  53   7 1108
1477479922.627:  -1074  53   7 1108
1477479922.627:  -1052  53   7 1108
1477479922.629:  -1025  53   7 1108
1477479922.631:  -1005  53   7 1108
1477479922.636:   -997  53   7 1108
1477479922.651:   -993  53   7 1108
1477479922.652:   -982  53   7 1108
1477479922.653:   -962  53   7 1108
1477479922.653:   -946  53   7 1108
1477479922.654:   -943  53   7 1108
1477479922.655:   -952  53   7 1108
1477479922.656:   -958  53   7 1108
1477479922.656:   -951  53   7 1108
1477479922.657:   -935  53   7 1108
1477479922.658:   -920  53   7 1108
1477479922.659:   -907  53   7 1108
1477479922.659:   -895  53   7 1108
1477479922.669:   -880  53   7 1108
1477479922.670:   -865  53   7 1108
1477479922.671:   -853  53   7 1108
1477479922.672:   -846  53   7 1108
1477479922.672:   -840  53   7 1108
1477479922.673:   -835  53   7 1108
1477479922.674:   -831  53   7 1108
1477479922.674:   -830  53   7 1108
1477479922.677:   -828  53   7 1108
1477479922.678:   -821  53   7 1108
1477479922.688:   -810  53   7 1108
1477479922.689:   -796  53   7 1108
1477479922.689:   -783  53   7 1108
1477479922.689:   -773  53   7 1108
1477479922.689:   -768  53   7 1108
1477479922.692:   -765  53   7 1108
1477479922.693:   -763  53   7 1108
1477479922.693:   -762  53   7 1108
1477479922.694:   -762  53   7 1108
1477479922.695:   -764  53   7 1108
1477479922.698:   -766  53   7 1108
1477479922.699:   -767  53   7 1108
1477479922.736:   -764  53   7 1108
1477479922.737:   -759  53   7 1108
1477479922.739:   -758  53   7 1108
1477479922.740:   -763  53   7 1108
1477479922.740:   -767  53   7 1108
1477479922.760:   -762  53   7 1108
1477479922.761:   -750  53   7 1108
1477479922.761:   -739  53   7 1108
1477479922.762:   -737  53   7 1108
1477479922.763:   -741  53   7 1108
1477479922.764:   -744  53   7 1108
1477479922.764:   -741  53   7 1108
1477479922.766:   -737  53   7 1108
1477479922.766:   -737  53   7 1108
1477479922.768:   -737  53   7 1108
1477479922.769:   -737  53   7 1108
1477479922.793:   -737  53   7 1108
1477479922.794:   -740  53   7 1108
1477479922.794:   -743  53   7 1108
1477479922.795:   -739  53   7 1108
1477479922.795:   -728  53   7 1108
1477479922.796:   -723  53   7 1108
1477479922.799:   -730  53   7 1108
1477479922.800:   -744  53   7 1108
1477479922.800:   -753  53   7 1108
1477479922.801:   -751  53   7 1108
1477479922.801:   -746  53   7 1108
1477479922.802:   -742  53   7 1108
1477479922.802:   -736  53   7 1108
1477479922.803:   -716  53   7 1108
1477479922.815:   -684  53   7 1108
1477479922.815:   -653  53   7 1108
1477479922.816:   -631  53   7 1108
1477479922.816:   -616  53   7 1108
1477479922.817:   -598  53   7 1108
1477479922.818:   -574  53   7 1108
1477479922.818:   -549  53   7 1108
1477479922.820:   -528  53   7 1108
1477479922.821:   -510  53   7 1108
1477479922.822:   -492  53   7 1108
1477479922.831:   -472  53   7 1108
1477479922.832:   -446  53   7 1108
1477479922.832:   -415  53   7 1108
1477479922.832:   -384  53   7 1108
1477479922.832:   -356  53   7 1108
1477479922.832:   -334  53   7 1108
1477479922.832:   -312  53   7 1108
1477479922.832:   -285  53   7 1108
1477479922.833:   -250  53   7 1108
1477479922.833:   -212  53   7 1108
1477479922.833:   -173  53   7 1108
1477479922.833:   -132  53   7 1108
1477479922.833:    -88  53   7 1108
1477479922.833:    -45  53   7 1108
1477479922.833:     -5  53   7 1108
1477479922.833:     34  53   7 1108
1477479922.834:     78  53   7 1108
1477479922.834:    127  53   7 1108
1477479922.834:    172  53   7 1108
1477479922.834:    207  53   7 1108
1477479922.834:    233  53   7 1108
1477479922.834:    261  53   7 1108
1477479922.834:    296  53   7 1108
1477479922.834:    334  53   7 1108
1477479922.835:    367  53   7 1108
1477479922.835:    396  53   7 1108
1477479922.835:    424  53   7 1108
1477479922.835:    451  53   7 1108
1477479922.837:    476  53   7 1108
1477479922.837:    496  53   7 1108
1477479922.839:    512  53   7 1108
1477479922.841:    527  53   7 1108
1477479922.843:    538  53   7 1108
1477479922.846:    545  53   7 1108
1477479922.847:    547  53   7 1108
1477479922.852:    546  53   7 1108
1477479922.853:    545  53   7 1108
1477479922.854:    544  53   7 1108
1477479922.856:    544  53   7 1108
1477479922.856:    546  53   7 1108
1477479922.871:    551  53   7 1108
1477479922.872:    559  53   7 1108
1477479922.872:    569  53   7 1108
1477479922.872:    572  53   7 1108
1477479922.872:    566  53   7 1108
1477479922.872:    560  53   7 1108
1477479922.874:    561  53   7 1108
1477479922.875:    566  53   7 1108
1477479922.875:    566  53   7 1108
1477479922.879:    551  53   7 1108
1477479922.883:    529  53   7 1108
1477479922.883:    519  53   7 1108
1477479922.883:    526  53   7 1108
1477479922.887:    533  53   7 1108
1477479922.887:    520  53   7 1108
1477479922.889:    492  53   7 1108
1477479922.890:    473  53   7 1108
1477479922.891:    477  53   7 1108
1477479922.893:    495  53   7 1108
1477479922.896:    499  53   7 1108
1477479922.900:    480  53   7 1108
1477479922.901:    455  53   7 1108
1477479922.914:    447  53   7 1108
1477479922.915:    454  53   7 1108
1477479922.916:    451  53   7 1108
1477479922.916:    423  53   7 1108
1477479922.917:    381  53   7 1108
1477479922.918:    351  53   7 1108
1477479922.919:    340  53   7 1108
1477479922.919:    335  53   7 1108
1477479922.920:    322  53   7 1108
1477479922.921:    305  53   7 1108
1477479922.933:    299  53   7 1108
1477479922.934:    305  53   7 1108
1477479922.934:    305  53   7 1108
1477479922.935:    289  53   7 1108
1477479922.936:    269  53   7 1108
1477479922.936:    266  53   7 1108
1477479922.937:    282  53   7 1108
1477479922.937:    296  53   7 1108
1477479922.938:    285  53   7 1108
1477479922.941:    256  53   7 1108
1477479922.942:    235  47   6 1170
1477479922.943:    234  47   6 1170
1477479922.944:    241  47   6 1170
1477479922.946:    234  47   6 1170
1477479922.948:    208  47   6 1170
1477479922.951:    177  47   6 1170
1477479922.961:    155  47   6 1170
1477479922.962:    146  47   6 1170
1477479922.962:    147  47   6 1170
1477479922.965:    153  47   6 1170
1477479922.965:    159  47   6 1170
1477479922.966:    160  47   6 1170
1477479922.966:    152  47   6 1170
1477479922.970:    144  47   6 1170
1477479922.980:    142  47   6 1170
1477479922.981:    146  47   6 1170
1477479922.982:    142  47   6 1170
1477479922.983:    125  47   6 1170
1477479922.983:    103  47   6 1170
1477479922.984:     91  47   6 1170
1477479922.985:     97  47   6 1170
1477479922.986:    113  47   6 1170
1477479922.986:    126  47   6 1170
1477479922.987:    131  47   6 1170
1477479922.988:    129  47   6 1170
1477479922.990:    125  47   6 1170
1477479923.001:    121  47   6 1170
1477479923.002:    121  47   6 1170
1477479923.002:    128  47   6 1170
1477479923.023:    136  47   6 1170
1477479923.044:    135  47   6 1170
1477479923.045:    119  47   6 1170
1477479923.047:     96  47   6 1170
1477479923.047:     82  47   6 1170
1477479923.048:     90  47   6 1170
1477479923.049:    118  47   6 1170
1477479923.049:    144  47   6 1170
1477479923.050:    150  47   6 1170
1477479923.050:    137  47   6 1170
1477479923.050:    126  47   6 1170
1477479923.050:    137  47   6 1170
1477479923.051:    169  47   6 1170
1477479923.051:    195  47   6 1170
1477479923.051:    191  47   6 1170
1477479923.051:    165  47   6 1170
1477479923.051:    146  47   6 1170
1477479923.052:    154  47   6 1170
1477479923.052:    176  47   6 1170
1477479923.052:    187  47   6 1170
1477479923.052:    181  47   6 1170
1477479923.053:    174  47   6 1170
1477479923.053:    183  47   6 1170
1477479923.053:    200  47   6 1170
1477479923.054:    207  47   6 1170
1477479923.054:    200  47   6 1170
1477479923.054:    194  47   6 1170
1477479923.054:    202  47   6 1170
1477479923.055:    224  47   6 1170
1477479923.055:    247  47   6 1170
1477479923.056:    268  47   6 1170
1477479923.061:    288  47   6 1170
1477479923.061:    307  47   6 1170
1477479923.063:    315  47   6 1170
1477479923.065:    306  47   6 1170
1477479923.102:    286  47   6 1170
1477479923.103:    270  47   6 1170
1477479923.104:    261  47   6 1170
1477479923.104:    253  47   6 1170
1477479923.105:    235  47   6 1170
1477479923.106:    208  47   6 1170
1477479923.107:    187  47   6 1170
1477479923.108:    186  47   6 1170
1477479923.109:    207  47   6 1170
1477479923.110:    230  47   6 1170
1477479923.110:    241  47   6 1170
1477479923.111:    241  47   6 1170
1477479923.112:    243  47   6 1170
1477479923.113:    258  47   6 1170
1477479923.113:    275  47   6 1170
1477479923.114:    277  47   6 1170
1477479923.116:    262  47   6 1170
1477479923.116:    245  47   6 1170
1477479923.117:    242  47   6 1170
1477479923.117:    246  47   6 1170
1477479923.118:    239  47   6 1170
1477479923.119:    217  47   6 1170
1477479923.135:    199  47   6 1170
1477479923.136:    205  47   6 1170
1477479923.136:    231  47   6 1170
1477479923.137:    255  47   6 1170
1477479923.138:    257  47   6 1170
1477479923.139:    245  47   6 1170
1477479923.172:    242  47   6 1170
1477479923.172:    263  47   6 1170
1477479923.173:    294  47   6 1170
1477479923.173:    308  47   6 1170
1477479923.173:    288  47   6 1170
1477479923.173:    253  47   6 1170
1477479923.174:    238  47   6 1170
1477479923.174:    257  47   6 1170
1477479923.174:    283  47   6 1170
1477479923.175:    282  47   6 1170
1477479923.175:    250  47   6 1170
1477479923.175:    225  47   6 1170
1477479923.175:    240  47   6 1170
1477479923.176:    278  47   6 1170
1477479923.176:    295  47   6 1170
1477479923.176:    270  47   6 1170
1477479923.177:    233  47   6 1170
1477479923.177:    226  47   6 1170
1477479923.177:    250  47   6 1170
1477479923.178:    268  47   6 1170
1477479923.178:    253  47   6 1170
1477479923.178:    215  47   6 1170
1477479923.179:    187  47   6 1170
1477479923.179:    184  47   6 1170
1477479923.179:    194  47   6 1170
1477479923.179:    201  47   6 1170
1477479923.180:    200  47   6 1170
1477479923.180:    197  47   6 1170
1477479923.180:    190  47   6 1170
1477479923.180:    172  47   6 1170
1477479923.181:    146  47   6 1170
1477479923.183:    126  47   6 1170
1477479923.184:    118  47   6 1170
1477479923.186:    116  47   6 1170
1477479923.189:    107  47   6 1170
1477479923.193:     77  47   6 1170
1477479923.210:     25  47   6 1170
1477479923.210:    -27  47   6 1170
1477479923.211:    -64  47   6 1170
1477479923.211:    -85  47   6 1170
1477479923.211:   -112  47   6 1170
1477479923.211:   -162  47   6 1170
1477479923.211:   -232  47   6 1170
1477479923.212:   -295  47   6 1170
1477479923.212:   -327  47   6 1170
1477479923.212:   -330  47   6 1170
1477479923.212:   -326  47   6 1170
1477479923.215:   -331  47   6 1170
1477479923.217:   -336  47   6 1170
1477479923.221:   -331  47   6 1170
1477479923.221:   -318  47   6 1170
1477479923.223:   -309  47   6 1170
1477479923.224:   -315  47   6 1170
1477479923.225:   -330  47   6 1170
1477479923.228:   -346  47   6 1170
1477479923.230:   -358  47   6 1170
1477479923.239:   -364  47   6 1170
1477479923.240:   -353  47   6 1170
1477479923.240:   -312  47   6 1170
1477479923.240:   -242  47   6 1170
1477479923.240:   -158  47   6 1170
1477479923.242:    -83  47   6 1170
1477479923.244:    -26  47   6 1170
1477479923.318:     21  47   6 1170
1477479923.320:     61  47   6 1170
1477479923.320:     88  47   6 1170
1477479923.320:     91  47   6 1170
1477479923.320:     72  47   6 1170
1477479923.320:     49  47   6 1170
1477479923.321:     39  47   6 1170
1477479923.321:     50  47   6 1170
1477479923.321:     83  47   6 1170
1477479923.321:    135  47   6 1170
1477479923.321:    199  47   6 1170
1477479923.321:    263  47   6 1170
1477479923.321:    313  47   6 1170
1477479923.322:    351  47   6 1170
1477479923.322:    389  47   6 1170
1477479923.322:    434  47   6 1170
1477479923.322:    474  47   6 1170
1477479923.322:    491  47   6 1170
1477479923.322:    488  47   6 1170
1477479923.322:    491  47   6 1170
1477479923.323:    523  47   6 1170
1477479923.323:    571  47   6 1170
1477479923.323:    600  47   6 1170
1477479923.323:    593  47   6 1170
1477479923.323:    573  47   6 1170
1477479923.323:    583  47   6 1170
1477479923.323:    631  47   6 1170
1477479923.323:    681  47   6 1170
1477479923.324:    689  47   6 1170
1477479923.324:    651  47   6 1170
1477479923.324:    607  47   6 1170
1477479923.324:    595  47   6 1170
1477479923.324:    619  47   6 1170
1477479923.325:    648  47   6 1170
1477479923.325:    655  47   6 1170
1477479923.325:    642  47   6 1170
1477479923.325:    631  47   6 1170
1477479923.326:    635  47   6 1170
1477479923.326:    656  47   6 1170
1477479923.326:    680  47   6 1170
1477479923.326:    685  47   6 1170
1477479923.327:    663  47   6 1170
1477479923.327:    627  47   6 1170
1477479923.330:    601  47   6 1170
1477479923.332:    602  47   6 1170
1477479923.339:    618  47   6 1170
1477479923.340:    617  47   6 1170
1477479923.350:    585  47   6 1170
1477479923.350:    545  47   6 1170
1477479923.350:    536  47   6 1170
1477479923.351:    564  47   6 1170
1477479923.351:    595  47   6 1170
1477479923.352:    596  47   6 1170
1477479923.352:    568  47   6 1170
1477479923.352:    543  47   6 1170
1477479923.354:    540  47   6 1170
1477479923.355:    545  47   6 1170
1477479923.356:    534  47   6 1170
1477479923.359:    505  47   6 1170
1477479923.368:    481  47   6 1170
1477479923.368:    472  47   6 1170
1477479923.369:    463  47   6 1170
1477479923.369:    443  47   6 1170
1477479923.369:    424  47   6 1170
1477479923.370:    436  47   6 1170
1477479923.376:    486  47   6 1170
1477479923.376:    536  47   6 1170
1477479923.377:    542  47   6 1170
1477479923.379:    500  47   6 1170
1477479923.400:    446  47   6 1170
1477479923.401:    421  47   6 1170
1477479923.401:    436  47   6 1170
1477479923.401:    471  47   6 1170
1477479923.401:    489  47   6 1170
1477479923.401:    474  47   6 1170
1477479923.401:    458  47   6 1170
1477479923.402:    484  47   6 1170
1477479923.402:    570  47   6 1170
1477479923.402:    665  47   6 1170
1477479923.404:    712  47   6 1170
1477479923.404:    717  47   6 1170
1477479923.404:    739  47   6 1170
1477479923.406:    804  47   6 1170
1477479923.407:    851  47   6 1170
1477479923.413:    803  47   6 1170
1477479923.413:    701  47   6 1170
1477479923.414:    708  47   6 1170
1477479923.417:    955  47   6 1170
1477479923.418:   1417  47   6 1170
1477479923.443:   1978  47   6 1170
1477479923.443:   2606  47   6 1170
1477479923.444:   3393  47   6 1170
1477479923.444:   4397  47   6 1170
1477479923.444:   5512  47   6 1170
1477479923.445:   6528  47   6 1170
1477479923.445:   7334  47   6 1170
1477479923.445:   7985  47   6 1170
1477479923.445:   8573  47   6 1170
1477479923.446:   9084  47   6 1170
1477479923.446:   9413  47   6 1170
1477479923.448:   9515  47   6 1170
1477479923.449:   9461  47   6 1170
1477479923.449:   9333  47   6 1170
1477479923.450:   9116  47   6 1170
1477479923.450:   8712  47   6 1170
1477479923.451:   8066  47   6 1170
1477479923.454:   7225  47   6 1170
1477479923.458:   6279  47   6 1170
1477479923.459:   5270  47   6 1170
1477479923.474:   4183  47   6 1170
1477479923.475:   3029  47   6 1170
1477479923.476:   1881  47   6 1170
1477479923.477:    843  47   6 1170
1477479923.479:    -11  47   6 1170
1477479923.480:   -662  47   6 1170
1477479923.482:  -1123  47   6 1170
1477479923.482:  -1415  47   6 1170
1477479923.483:  -1563  47   6 1170
1477479923.483:  -1604  47   6 1170
1477479923.484:  -1591  47   6 1170
1477479923.484:  -1569  47   6 1170
1477479923.503:  -1570  47   6 1170
1477479923.504:  -1611  47   6 1170
1477479923.504:  -1693  47   6 1170
1477479923.504:  -1798  47   6 1170
1477479923.505:  -1895  47   6 1170
1477479923.505:  -1968  47   6 1170
1477479923.505:  -2015  47   6 1170
1477479923.506:  -2045  47   6 1170
1477479923.507:  -2055  47   6 1170
1477479923.507:  -2032  47   6 1170
1477479923.507:  -1992  47   6 1170
1477479923.507:  -1977  47   6 1170
1477479923.509:  -2014  47   6 1170
1477479923.510:  -2078  47   6 1170
1477479923.514:  -2111  47   6 1170
1477479923.514:  -2078  47   6 1170
1477479923.525:  -2001  47   6 1170
1477479923.526:  -1926  47   6 1170
1477479923.527:  -1877  47   6 1170
1477479923.528:  -1842  47   6 1170
1477479923.530:  -1802  47   6 1170
1477479923.532:  -1763  47   6 1170
1477479923.532:  -1739  47   6 1170
1477479923.534:  -1733  47   6 1170
1477479923.543:  -1733  47   6 1170
1477479923.543:  -1722  47   6 1170
1477479923.544:  -1702  47   6 1170
1477479923.544:  -1677  47   6 1170
1477479923.545:  -1647  47   6 1170
1477479923.545:  -1609  47   6 1170
1477479923.545:  -1565  47   6 1170
1477479923.548:  -1528  47   6 1170
1477479923.550:  -1503  47   6 1170
1477479923.550:  -1477  47   6 1170
1477479923.560:  -1439  47   6 1170
1477479923.561:  -1396  47   6 1170
1477479923.561:  -1369  47   6 1170
1477479923.562:  -1371  47   6 1170
1477479923.563:  -1384  47   6 1170
1477479923.564:  -1383  47   6 1170
1477479923.566:  -1360  47   6 1170
1477479923.567:  -1338  47   6 1170
1477479923.567:  -1338  47   6 1170
1477479923.568:  -1349  47   6 1170
1477479923.579:  -1340  47   6 1170
1477479923.580:  -1296  47   6 1170
1477479923.580:  -1239  47   6 1170
1477479923.581:  -1201  47   6 1170
1477479923.582:  -1186  47   6 1170
1477479923.582:  -1168  47   6 1170
1477479923.583:  -1123  47   6 1170
1477479923.584:  -1068  47   6 1170
1477479923.588:  -1039  47   6 1170
1477479923.588:  -1045  47   6 1170
1477479923.597:  -1062  47   6 1170
1477479923.597:  -1059  47   6 1170
1477479923.598:  -1033  47   6 1170
1477479923.599:  -1008  47   6 1170
1477479923.601:   -998  47   6 1170
1477479923.601:   -991  47   6 1170
1477479923.602:   -969  47   6 1170
1477479923.603:   -936  47   6 1170
1477479923.615:   -915  47   6 1170
1477479923.615:   -916  47   6 1170
1477479923.615:   -924  47   6 1170
1477479923.615:   -915  47   6 1170
1477479923.615:   -886  47   6 1170
1477479923.615:   -853  47   6 1170
1477479923.619:   -836  47   6 1170
1477479923.620:   -841  47   6 1170
1477479923.621:   -857  47   6 1170
1477479923.623:   -867  47   6 1170
1477479923.634:   -857  47   6 1170
1477479923.634:   -826  47   6 1170
1477479923.634:   -788  47   6 1170
1477479923.634:   -769  47   6 1170
1477479923.634:   -786  47   6 1170
1477479923.634:   -820  47   6 1170
1477479923.637:   -833  47   6 1170
1477479923.638:   -798  47   6 1170
1477479923.640:   -735  47   6 1170
1477479923.642:   -690  47   6 1170
1477479923.648:   -698  47   6 1170
1477479923.648:   -747  47   6 1170
1477479923.649:   -791  47   6 1170
1477479923.650:   -792  47   6 1170
1477479923.667:   -753  47   6 1170
1477479923.668:   -710  47   6 1170
1477479923.669:   -699  47   6 1170
1477479923.669:   -721  47   6 1170
1477479923.670:   -745  47   6 1170
1477479923.670:   -742  47   6 1170
1477479923.671:   -712  47   6 1170
1477479923.671:   -680  47   6 1170
1477479923.671:   -670  47   6 1170
1477479923.672:   -681  47   6 1170
1477479923.673:   -695  47   6 1170
1477479923.674:   -700  47   6 1170
1477479923.679:   -697  47   6 1170
1477479923.680:   -694  47   6 1170
1477479923.687:   -690  47   6 1170
1477479923.688:   -682  47   6 1170
1477479923.689:   -670  47   6 1170
1477479923.689:   -664  47   6 1170
1477479923.690:   -666  47   6 1170
1477479923.693:   -668  47   6 1170
1477479923.694:   -665  47   6 1170
1477479923.696:   -663  47   6 1170
1477479923.709:   -678  47   6 1170
1477479923.709:   -707  47   6 1170
1477479923.710:   -730  47   6 1170
1477479923.710:   -730  47   6 1170
1477479923.710:   -708  47   6 1170
1477479923.711:   -690  47   6 1170
1477479923.740:   -692  47   6 1170
1477479923.741:   -708  47   6 1170
1477479923.742:   -718  47   6 1170
1477479923.743:   -716  47   6 1170
1477479923.759:   -713  47   6 1170
1477479923.759:   -720  47   6 1170
1477479923.759:   -738  47   6 1170
1477479923.759:   -753  47   6 1170
1477479923.759:   -757  47   6 1170
1477479923.760:   -754  47   6 1170
1477479923.760:   -752  47   6 1170
1477479923.760:   -757  47   6 1170
1477479923.760:   -764  47   6 1170
1477479923.760:   -768  47   6 1170
1477479923.760:   -765  47   6 1170
1477479923.760:   -757  47   6 1170
1477479923.761:   -750  47   6 1170
1477479923.761:   -747  47   6 1170
1477479923.761:   -742  47   6 1170
1477479923.761:   -730  47   6 1170
1477479923.761:   -711  47   6 1170
1477479923.761:   -691  47   6 1170
1477479923.761:   -679  47   6 1170
1477479923.761:   -674  47   6 1170
1477479923.762:   -666  47   6 1170
1477479923.763:   -644  47   6 1170
1477479923.763:   -612  47   6 1170
1477479923.765:   -582  47   6 1170
1477479923.766:   -559  47   6 1170
1477479923.767:   -543  47   6 1170
1477479923.768:   -527  47   6 1170
1477479923.770:   -506  47   6 1170
1477479923.770:   -477  47   6 1170
1477479923.775:   -442  47   6 1170
1477479923.775:   -406  47   6 1170
1477479923.780:   -373  47   6 1170
1477479923.781:   -348  47   6 1170
1477479923.782:   -325  47   6 1170
1477479923.783:   -295  47   6 1170
1477479923.784:   -258  47   6 1170
1477479923.786:   -221  47   6 1170
1477479923.789:   -194  47   6 1170
1477479923.802:   -178  47   6 1170
1477479923.802:   -161  47   6 1170
1477479923.803:   -133  47   6 1170
1477479923.804:    -89  47   6 1170
1477479923.804:    -35  47   6 1170
1477479923.805:     22  47   6 1170
1477479923.806:     77  47   6 1170
1477479923.809:    129  47   6 1170
1477479923.830:    174  47   6 1170
1477479923.831:    211  47   6 1170
1477479923.831:    243  47   6 1170
1477479923.831:    272  47   6 1170
1477479923.831:    304  47   6 1170
1477479923.832:    339  47   6 1170
1477479923.832:    371  47   6 1170
1477479923.832:    395  47   6 1170
1477479923.832:    409  47   6 1170
1477479923.833:    419  47   6 1170
1477479923.833:    432  47   6 1170
1477479923.834:    450  47   6 1170
1477479923.835:    467  47   6 1170
1477479923.835:    476  47   6 1170
1477479923.835:    478  47   6 1170
1477479923.836:    479  47   6 1170
1477479923.838:    479  47   6 1170
1477479923.838:    476  47   6 1170
1477479923.840:    467  47   6 1170
1477479923.841:    459  47   6 1170
1477479923.843:    458  47   6 1170
1477479923.846:    464  47   6 1170
1477479923.865:    465  47   6 1170
1477479923.865:    454  47   6 1170
1477479923.865:    436  47   6 1170
1477479923.866:    426  47   6 1170
1477479923.866:    434  47   6 1170
1477479923.866:    452  47   6 1170
1477479923.866:    464  47   6 1170
1477479923.866:    465  47   6 1170
1477479923.866:    462  47   6 1170
1477479923.867:    463  47   6 1170
1477479923.870:    469  47   6 1170
1477479923.870:    474  47   6 1170
1477479923.872:    468  47   6 1170
1477479923.874:    456  47   6 1170
1477479923.875:    446  47   6 1170
1477479923.878:    441  47   6 1170
1477479923.880:    437  47   6 1170
1477479923.883:    429  47   6 1170
1477479923.883:    416  47   6 1170
1477479923.885:    402  47   6 1170
1477479923.886:    393  47   6 1170
1477479923.892:    390  47   6 1170
1477479923.906:    386  47   6 1170
1477479923.906:    376  47   6 1170
1477479923.906:    364  47   6 1170
1477479923.906:    356  47   6 1170
1477479923.907:    356  47   6 1170
1477479923.907:    363  47   6 1170
1477479923.907:    370  47   6 1170
1477479923.908:    372  47   6 1170
1477479923.908:    370  47   6 1170
1477479923.911:    369  47   6 1170
1477479923.911:    368  47   6 1170
1477479923.912:    366  47   6 1170
1477479923.915:    361  47   6 1170
1477479923.916:    355  47   6 1170
1477479923.927:    349  47   6 1170
1477479923.928:    343  47   6 1170
1477479923.928:    336  47   6 1170
1477479923.928:    329  47   6 1170
1477479923.929:    326  47   6 1170
1477479923.930:    326  47   6 1170
1477479923.934:    328  47   6 1170
1477479923.935:    328  47   6 1170
1477479923.935:    329  47   6 1170
1477479923.936:    333  47   6 1170
1477479923.948:    338  47   6 1170
1477479923.949:    344  47   6 1170
1477479923.949:    345  47   6 1170
1477479923.949:    341  47   6 1170
1477479923.949:    332  47   6 1170
1477479923.949:    322  47   6 1170
1477479923.950:    314  47   6 1170
1477479923.953:    308  47   6 1170
1477479923.954:    305  47   6 1170
1477479923.956:    303  47   6 1170
1477479923.961:    301  47   6 1170
1477479923.962:    301  47   6 1170
1477479923.963:    303  47   6 1170
1477479923.965:    308  47   6 1170
1477479923.966:    315  47   6 1170
1477479923.968:    319  47   6 1170
1477479923.985:    312  47   6 1170
1477479923.986:    295  47   6 1170
1477479923.986:    274  47   6 1170
1477479923.986:    260  47   6 1170
1477479923.987:    257  47   6 1170
1477479923.987:    258  47   6 1170
1477479923.988:    254  47   6 1170
1477479923.990:    245  47   6 1170
1477479923.991:    236  47   6 1170
1477479923.991:    232  47   6 1170
1477479923.992:    234  47   6 1170
1477479923.992:    234  47   6 1170
1477479923.993:    231  47   6 1170
1477479923.995:    231  47   6 1170
1477479923.997:    235  47   6 1170
1477479924.002:    242  47   6 1170
1477479924.009:    247  47   6 1170
1477479924.009:    248  47   6 1170
1477479924.011:    249  47   6 1170
1477479924.011:    250  47   6 1170
1477479924.012:    250  47   6 1170
1477479924.012:    244  47   6 1170
1477479924.016:    236  47   6 1170
1477479924.016:    231  47   6 1170
1477479924.028:    228  47   6 1170
1477479924.028:    222  47   6 1170
1477479924.028:    214  47   6 1170
1477479924.028:    207  47   6 1170
1477479924.029:    205  47   6 1170
1477479924.029:    206  47   6 1170
1477479924.029:    205  47   6 1170
1477479924.031:    199  47   6 1170
1477479924.035:    192  47   6 1170
1477479924.035:    187  47   6 1170
1477479924.037:    184  47   6 1170
1477479924.039:    180  47   6 1170
1477479924.049:    178  47   6 1170
1477479924.050:    178  47   6 1170
1477479924.050:    176  47   6 1170
1477479924.050:    165  47   6 1170
1477479924.050:    143  47   6 1170
1477479924.050:    122  47   6 1170
1477479924.051:    112  47   6 1170
1477479924.057:    110  47   6 1170
1477479924.058:    108  47   6 1170
1477479924.060:     97  47   6 1170
1477479924.061:     84  47   6 1170
1477479924.063:     77  47   6 1170
1477479924.064:     78  47   6 1170
1477479924.069:     80  47   6 1170
1477479924.070:     78  47   6 1170
1477479924.070:     70  47   6 1170
1477479924.072:     62  47   6 1170
1477479924.076:     58  47   6 1170
1477479924.076:     59  47   6 1170
1477479924.081:     62  47   6 1170
1477479924.092:     66  47   6 1170
1477479924.094:     70  47   6 1170
1477479924.095:     72  47   6 1170
1477479924.095:     73  47   6 1170
1477479924.095:     76  47   6 1170
1477479924.096:     86  47   6 1170
1477479924.096:     96  47   6 1170
1477479924.096:    100  47   6 1170
1477479924.097:     92  47   6 1170
1477479924.097:     78  47   6 1170
1477479924.109:     65  47   6 1170
1477479924.109:     61  47   6 1170
1477479924.109:     62  47   6 1170
1477479924.109:     58  47   6 1170
1477479924.109:     50  47   6 1170
1477479924.110:     41  47   6 1170
1477479924.111:     36  47   6 1170
1477479924.114:     36  47   6 1170
1477479924.116:     40  47   6 1170
1477479924.118:     46  47   6 1170
1477479924.128:     47  47   6 1170
1477479924.129:     44  47   6 1170
1477479924.129:     34  47   6 1170
1477479924.129:     22  47   6 1170
1477479924.131:     14  47   6 1170
1477479924.131:     13  47   6 1170
1477479924.133:     13  47   6 1170
1477479924.134:      9  47   6 1170
1477479924.135:      1  47   6 1170
1477479924.137:      0  47   6 1170
1477479924.147:      7  47   6 1170
1477479924.148:     19  47   6 1170
1477479924.148:     28  47   6 1170
1477479924.148:     33  47   6 1170
1477479924.148:     38  47   6 1170
1477479924.148:     44  47   6 1170
1477479924.154:     44  47   6 1170
1477479924.155:     33  47   6 1170
1477479924.156:     20  47   6 1170
1477479924.157:     18  47   6 1170
1477479924.167:     30  47   6 1170
1477479924.167:     42  47   6 1170
1477479924.167:     40  47   6 1170
1477479924.167:     25  47   6 1170
1477479924.168:      7  47   6 1170
1477479924.174:     -8  47   6 1170
1477479924.175:    -23  47   6 1170
1477479924.175:    -42  47   6 1170
1477479924.175:    -61  47   6 1170
1477479924.176:    -76  47   6 1170
1477479924.182:   -100  47   6 1170
1477479924.182:   -147  47   6 1170
1477479924.185:   -216  47   6 1170
1477479924.188:   -284  47   6 1170
1477479924.189:   -331  47   6 1170
1477479924.190:   -365  47   6 1170
1477479924.191:   -410  47   6 1170
1477479924.191:   -477  47   6 1170
1477479924.194:   -540  47   6 1170
1477479924.195:   -566  47   6 1170
1477479924.198:   -550  47   6 1170
1477479924.198:   -522  47   6 1170
1477479924.214:   -508  47   6 1170
1477479924.214:   -507  47   6 1170
1477479924.214:   -501  47   6 1170
1477479924.214:   -482  47   6 1170
1477479924.214:   -471  47   6 1170
1477479924.214:   -486  47   6 1170
1477479924.215:   -520  47   6 1170
1477479924.215:   -549  47   6 1170
1477479924.216:   -551  47   6 1170
1477479924.219:   -531  47   6 1170
1477479924.221:   -500  47   6 1170
1477479924.225:   -463  47   6 1170
1477479924.226:   -414  47   6 1170
1477479924.227:   -352  47   6 1170
1477479924.229:   -284  47   6 1170
1477479924.230:   -219  47   6 1170
1477479924.233:   -164  47   6 1170
1477479924.235:   -117  47   6 1170
1477479924.239:    -85  47   6 1170
1477479924.240:    -74  47   6 1170
1477479924.253:    -79  47   6 1170
1477479924.254:    -86  47   6 1170
1477479924.255:    -78  47   6 1170
1477479924.256:    -54  47   6 1170
1477479924.257:    -22  47   6 1170
1477479924.257:     13  47   6 1170
1477479924.258:     50  47   6 1170
1477479924.259:     93  47   6 1170
1477479924.260:    142  47   6 1170
1477479924.261:    191  47   6 1170
1477479924.263:    240  47   6 1170
1477479924.266:    290  47   6 1170
1477479924.274:    339  47   6 1170
1477479924.274:    378  47   6 1170
1477479924.275:    403  47   6 1170
1477479924.276:    417  47   6 1170
1477479924.277:    428  47   6 1170
1477479924.277:    444  47   6 1170
1477479924.278:    466  47   6 1170
1477479924.303:    485  47   6 1170
1477479924.309:    497  47   6 1170
1477479924.310:    501  47   6 1170
1477479924.310:    500  47   6 1170
1477479924.311:    498  47   6 1170
1477479924.312:    498  47   6 1170
1477479924.313:    496  47   6 1170
1477479924.314:    492  47   6 1170
1477479924.315:    487  47   6 1170
1477479924.316:    489  47   6 1170
1477479924.316:    496  47   6 1170
1477479924.327:    501  47   6 1170
1477479924.327:    497  47   6 1170
1477479924.327:    488  47   6 1170
1477479924.328:    482  47   6 1170
1477479924.328:    483  47   6 1170
1477479924.328:    485  47   6 1170
1477479924.329:    475  47   6 1170
1477479924.329:    452  47   6 1170
1477479924.329:    431  47   6 1170
1477479924.329:    425  47   6 1170
1477479924.330:    432  47   6 1170
1477479924.330:    440  47   6 1170
1477479924.330:    438  47   6 1170
1477479924.330:    427  47   6 1170
1477479924.331:    415  47   6 1170
1477479924.331:    409  47   6 1170
1477479924.331:    407  47   6 1170
1477479924.332:    404  47   6 1170
1477479924.335:    399  47   6 1170
1477479924.336:    397  47   6 1170
1477479924.345:    400  47   6 1170
1477479924.346:    402  47   6 1170
1477479924.346:    394  47   6 1170
1477479924.347:    377  47   6 1170
1477479924.347:    360  47   6 1170
1477479924.349:    351  47   6 1170
1477479924.349:    344  47   6 1170
1477479924.354:    330  47   6 1170
1477479924.364:    310  47   6 1170
1477479924.364:    297  47   6 1170
1477479924.365:    299  43   5 1232
1477479924.365:    309  43   5 1232
1477479924.365:    311  43   5 1232
1477479924.367:    299  43   5 1232
1477479924.367:    286  43   5 1232
1477479924.369:    282  43   5 1232
1477479924.370:    285  43   5 1232
1477479924.372:    287  43   5 1232
1477479924.373:    288  43   5 1232
1477479924.375:    287  43   5 1232
1477479924.381:    288  43   5 1232
1477479924.381:    306  43   5 1232
1477479924.388:    356  43   5 1232
1477479924.388:    429  43   5 1232
1477479924.388:    488  43   5 1232
1477479924.388:    509  43   5 1232
1477479924.389:    516  43   5 1232
1477479924.395:    562  43   5 1232
1477479924.395:    651  43   5 1232
1477479924.396:    714  43   5 1232
1477479924.397:    690  43   5 1232
1477479924.400:    624  43   5 1232
1477479924.413:    651  43   5 1232
1477479924.413:    885  43   5 1232
1477479924.414:   1335  43   5 1232
1477479924.414:   1953  43   5 1232
1477479924.414:   2723  43   5 1232
1477479924.414:   3666  43   5 1232
1477479924.414:   4761  43   5 1232
1477479924.414:   5893  43   5 1232
1477479924.416:   6929  43   5 1232
1477479924.422:   7824  43   5 1232
1477479924.422:   8612  43   5 1232
1477479924.424:   9305  43   5 1232
1477479924.434:   9833  43   5 1232
1477479924.437:  10103  43   5 1232
1477479924.437:  10106  43   5 1232
1477479924.442:   9933  43   5 1232
1477479924.443:   9674  43   5 1232
1477479924.443:   9328  43   5 1232
1477479924.444:   8813  43   5 1232
1477479924.444:   8071  43   5 1232
1477479924.445:   7135  43   5 1232
1477479924.446:   6088  43   5 1232
1477479924.447:   4984  43   5 1232
1477479924.450:   3826  43   5 1232
1477479924.450:   2635  43   5 1232
1477479924.451:   1487  43   5 1232
1477479924.453:    486  43   5 1232
1477479924.454:   -308  43   5 1232
1477479924.456:   -911  43   5 1232
1477479924.459:  -1364  43   5 1232
1477479924.463:  -1678  43   5 1232
1477479924.463:  -1832  43   5 1232
1477479924.478:  -1842  43   5 1232
1477479924.478:  -1785  43   5 1232
1477479924.485:  -1756  43   5 1232
1477479924.486:  -1802  43   5 1232
1477479924.496:  -1910  43   5 1232
1477479924.499:  -2037  43   5 1232
1477479924.500:  -2154  43   5 1232
1477479924.503:  -2251  43   5 1232
1477479924.504:  -2321  43   5 1232
1477479924.504:  -2352  43   5 1232
1477479924.516:  -2340  43   5 1232
1477479924.516:  -2303  43   5 1232
1477479924.517:  -2262  43   5 1232
1477479924.518:  -2238  43   5 1232
1477479924.519:  -2239  43   5 1232
1477479924.520:  -2253  43   5 1232
1477479924.520:  -2262  43   5 1232
1477479924.521:  -2252  43   5 1232
1477479924.521:  -2224  43   5 1232
1477479924.522:  -2186  43   5 1232
1477479924.523:  -2144  43   5 1232
1477479924.523:  -2099  43   5 1232
1477479924.535:  -2055  43   5 1232
1477479924.536:  -2019  43   5 1232
1477479924.537:  -1998  43   5 1232
1477479924.537:  -1990  43   5 1232
1477479924.538:  -1984  43   5 1232
1477479924.540:  -1969  43   5 1232
1477479924.542:  -1943  43   5 1232
1477479924.542:  -1910  43   5 1232
1477479924.543:  -1876  43   5 1232
1477479924.544:  -1845  43   5 1232
1477479924.546:  -1816  43   5 1232
1477479924.548:  -1790  43   5 1232
1477479924.550:  -1766  43   5 1232
1477479924.550:  -1746  43   5 1232
1477479924.550:  -1730  43   5 1232
1477479924.550:  -1717  43   5 1232
1477479924.551:  -1704  43   5 1232
1477479924.551:  -1688  43   5 1232
1477479924.551:  -1670  43   5 1232
1477479924.551:  -1649  43   5 1232
1477479924.552:  -1629  43   5 1232
1477479924.553:  -1612  43   5 1232
1477479924.553:  -1597  43   5 1232
1477479924.553:  -1580  43   5 1232
1477479924.555:  -1554  43   5 1232
1477479924.558:  -1521  43   5 1232
1477479924.559:  -1487  43   5 1232
1477479924.560:  -1462  43   5 1232
1477479924.564:  -1443  43   5 1232
1477479924.565:  -1424  43   5 1232
1477479924.578:  -1400  43   5 1232
1477479924.578:  -1372  43   5 1232
1477479924.579:  -1349  43   5 1232
1477479924.579:  -1334  43   5 1232
1477479924.579:  -1321  43   5 1232
1477479924.579:  -1305  43   5 1232
1477479924.579:  -1282  43   5 1232
1477479924.584:  -1257  43   5 1232
1477479924.584:  -1235  43   5 1232
1477479924.584:  -1217  43   5 1232
1477479924.587:  -1200  43   5 1232
1477479924.588:  -1181  43   5 1232
1477479924.592:  -1160  43   5 1232
1477479924.592:  -1142  43   5 1232
1477479924.599:  -1131  43   5 1232
1477479924.599:  -1125  43   5 1232
1477479924.599:  -1119  43   5 1232
1477479924.600:  -1107  43   5 1232
1477479924.601:  -1090  43   5 1232
1477479924.608:  -1075  43   5 1232
1477479924.618:  -1066  43   5 1232
1477479924.618:  -1058  43   5 1232
1477479924.619:  -1044  43   5 1232
1477479924.619:  -1023  43   5 1232
1477479924.619:   -998  43   5 1232
1477479924.619:   -973  43   5 1232
1477479924.620:   -947  43   5 1232
1477479924.620:   -921  43   5 1232
1477479924.624:   -896  43   5 1232
1477479924.624:   -876  43   5 1232
1477479924.625:   -861  43   5 1232
1477479924.627:   -850  43   5 1232
1477479924.634:   -841  43   5 1232
1477479924.635:   -836  43   5 1232
1477479924.639:   -833  43   5 1232
1477479924.640:   -830  43   5 1232
1477479924.640:   -827  43   5 1232
1477479924.643:   -826  43   5 1232
1477479924.643:   -827  43   5 1232
1477479924.650:   -824  43   5 1232
1477479924.658:   -812  43   5 1232
1477479924.658:   -791  43   5 1232
1477479924.659:   -773  43   5 1232
1477479924.659:   -768  43   5 1232
1477479924.659:   -770  43   5 1232
1477479924.659:   -767  43   5 1232
1477479924.660:   -753  43   5 1232
1477479924.660:   -734  43   5 1232
1477479924.663:   -723  43   5 1232
1477479924.665:   -723  43   5 1232
1477479924.665:   -727  43   5 1232
1477479924.666:   -729  43   5 1232
1477479924.730:   -730  43   5 1232
1477479924.730:   -735  43   5 1232
1477479924.730:   -742  43   5 1232
1477479924.730:   -745  43   5 1232
1477479924.730:   -740  43   5 1232
1477479924.730:   -731  43   5 1232
1477479924.731:   -727  43   5 1232
1477479924.731:   -728  43   5 1232
1477479924.731:   -730  43   5 1232
1477479924.731:   -728  43   5 1232
1477479924.731:   -725  43   5 1232
1477479924.731:   -724  43   5 1232
1477479924.731:   -730  43   5 1232
1477479924.731:   -741  43   5 1232
1477479924.732:   -750  43   5 1232
1477479924.732:   -754  43   5 1232
1477479924.732:   -753  43   5 1232
1477479924.732:   -750  43   5 1232
1477479924.732:   -746  43   5 1232
1477479924.732:   -741  43   5 1232
1477479924.732:   -735  43   5 1232
1477479924.733:   -730  43   5 1232
1477479924.744:   -730  43   5 1232
1477479924.744:   -733  43   5 1232
1477479924.763:   -735  43   5 1232
1477479924.763:   -729  43   5 1232
1477479924.763:   -718  43   5 1232
1477479924.763:   -703  43   5 1232
1477479924.763:   -689  43   5 1232
1477479924.763:   -676  43   5 1232
1477479924.764:   -663  43   5 1232
1477479924.764:   -647  43   5 1232
1477479924.764:   -629  43   5 1232
1477479924.764:   -606  43   5 1232
1477479924.764:   -581  43   5 1232
1477479924.765:   -556  43   5 1232
1477479924.765:   -533  43   5 1232
1477479924.765:   -511  43   5 1232
1477479924.765:   -490  43   5 1232
1477479924.765:   -471  43   5 1232
1477479924.765:   -454  43   5 1232
1477479924.770:   -433  43   5 1232
1477479924.770:   -405  43   5 1232
1477479924.770:   -374  43   5 1232
1477479924.771:   -345  43   5 1232
1477479924.771:   -320  43   5 1232
1477479924.772:   -296  43   5 1232
1477479924.772:   -268  43   5 1232
1477479924.772:   -240  43   5 1232
1477479924.773:   -215  43   5 1232
1477479924.774:   -188  43   5 1232
1477479924.775:   -150  43   5 1232
1477479924.776:    -98  43   5 1232
1477479924.776:    -45  43   5 1232
1477479924.777:     -4  43   5 1232
1477479924.777:     29  43   5 1232
1477479924.792:     71  43   5 1232
1477479924.792:    128  43   5 1232
1477479924.792:    187  43   5 1232
1477479924.792:    230  43   5 1232
1477479924.792:    252  43   5 1232
1477479924.792:    271  43   5 1232
1477479924.793:    296  43   5 1232
1477479924.793:    327  43   5 1232
1477479924.797:    356  43   5 1232
1477479924.797:    381  43   5 1232
1477479924.799:    410  43   5 1232
1477479924.800:    447  43   5 1232
1477479924.801:    480  43   5 1232
1477479924.804:    500  43   5 1232
1477479924.812:    508  43   5 1232
1477479924.817:    517  43   5 1232
1477479924.818:    537  43   5 1232
1477479924.818:    561  43   5 1232
1477479924.819:    572  43   5 1232
1477479924.820:    566  43   5 1232
1477479924.830:    552  43   5 1232
1477479924.833:    546  43   5 1232
1477479924.834:    553  43   5 1232
1477479924.835:    557  43   5 1232
1477479924.836:    549  43   5 1232
1477479924.837:    531  43   5 1232
1477479924.847:    521  43   5 1232
1477479924.847:    522  43   5 1232
1477479924.847:    524  43   5 1232
1477479924.848:    513  43   5 1232
1477479924.848:    494  43   5 1232
1477479924.848:    485  43   5 1232
1477479924.848:    497  43   5 1232
1477479924.848:    515  43   5 1232
1477479924.848:    514  43   5 1232
1477479924.848:    491  43   5 1232
1477479924.849:    464  43   5 1232
1477479924.851:    453  43   5 1232
1477479924.852:    454  43   5 1232
1477479924.857:    447  43   5 1232
1477479924.858:    422  43   5 1232
1477479924.861:    396  43   5 1232
1477479924.863:    387  43   5 1232
1477479924.865:    397  43   5 1232
1477479924.881:    406  43   5 1232
1477479924.881:    398  43   5 1232
1477479924.882:    378  43   5 1232
1477479924.882:    363  43   5 1232
1477479924.882:    359  43   5 1232
1477479924.882:    356  43   5 1232
1477479924.883:    341  43   5 1232
1477479924.883:    316  43   5 1232
1477479924.883:    294  43   5 1232
1477479924.885:    282  43   5 1232
1477479924.885:    276  43   5 1232
1477479924.887:    266  43   5 1232
1477479924.889:    250  43   5 1232
1477479924.890:    234  43   5 1232
1477479924.899:    223  43   5 1232
1477479924.899:    217  43   5 1232
1477479924.899:    211  43   5 1232
1477479924.900:    200  43   5 1232
1477479924.900:    190  43   5 1232
1477479924.901:    181  43   5 1232
1477479924.904:    175  43   5 1232
1477479924.905:    170  43   5 1232
1477479924.913:    164  43   5 1232
1477479924.920:    158  43   5 1232
1477479924.928:    149  43   5 1232
1477479924.929:    140  43   5 1232
1477479924.930:    135  43   5 1232
1477479924.931:    138  43   5 1232
1477479924.932:    146  43   5 1232
1477479924.932:    149  43   5 1232
1477479924.932:    138  43   5 1232
1477479924.932:    117  43   5 1232
1477479924.933:    101  43   5 1232
1477479924.933:     97  43   5 1232
1477479924.933:     98  43   5 1232
1477479924.933:     92  43   5 1232
1477479924.935:     78  43   5 1232
1477479924.940:     69  43   5 1232
1477479924.946:     76  43   5 1232
1477479924.946:     94  43   5 1232
1477479924.949:    106  43   5 1232
1477479924.949:    103  43   5 1232
1477479924.950:     93  43   5 1232
1477479924.950:     90  43   5 1232
1477479924.951:     93  43   5 1232
1477479924.952:     92  43   5 1232
1477479924.957:     80  43   5 1232
1477479924.957:     63  43   5 1232
1477479924.982:     51  43   5 1232
1477479924.982:     50  43   5 1232
1477479924.982:     51  43   5 1232
1477479924.982:     48  43   5 1232
1477479924.982:     43  43   5 1232
1477479924.983:     43  43   5 1232
1477479924.983:     52  43   5 1232
1477479924.983:     63  43   5 1232
1477479924.983:     73  43   5 1232
1477479924.983:     82  43   5 1232
1477479924.983:     93  43   5 1232
1477479924.984:    107  43   5 1232
1477479924.985:    116  43   5 1232
1477479924.985:    116  43   5 1232
1477479924.986:    111  43   5 1232
1477479924.989:    110  43   5 1232
1477479924.993:    115  43   5 1232
1477479924.995:    120  43   5 1232
1477479924.997:    116  43   5 1232
1477479924.998:    105  43   5 1232
1477479925.000:    101  43   5 1232
1477479925.004:    113  43   5 1232
1477479925.004:    136  43   5 1232
1477479925.007:    153  43   5 1232
1477479925.008:    156  43   5 1232
1477479925.009:    151  43   5 1232
1477479925.010:    153  43   5 1232
1477479925.011:    166  43   5 1232
1477479925.015:    182  43   5 1232
1477479925.018:    191  43   5 1232
1477479925.021:    194  43   5 1232
1477479925.021:    199  43   5 1232
1477479925.044:    212  43   5 1232
1477479925.045:    230  43   5 1232
1477479925.045:    242  43   5 1232
1477479925.045:    242  43   5 1232
1477479925.046:    233  43   5 1232
1477479925.046:    221  43   5 1232
1477479925.046:    213  43   5 1232
1477479925.046:    208  43   5 1232
1477479925.046:    202  43   5 1232
1477479925.047:    194  43   5 1232
1477479925.049:    188  43   5 1232
1477479925.049:    187  43   5 1232
1477479925.049:    187  43   5 1232
1477479925.049:    184  43   5 1232
1477479925.050:    180  43   5 1232
1477479925.056:    180  43   5 1232
1477479925.066:    189  43   5 1232
1477479925.067:    200  43   5 1232
1477479925.067:    205  43   5 1232
1477479925.068:    203  43   5 1232
1477479925.069:    201  43   5 1232
1477479925.069:    207  43   5 1232
1477479925.070:    219  43   5 1232
1477479925.071:    226  43   5 1232
1477479925.084:    224  43   5 1232
1477479925.084:    221  43   5 1232
1477479925.084:    222  43   5 1232
1477479925.085:    228  43   5 1232
1477479925.085:    230  43   5 1232
1477479925.085:    221  43   5 1232
1477479925.085:    209  43   5 1232
1477479925.085:    205  43   5 1232
1477479925.086:    212  43   5 1232
1477479925.090:    217  43   5 1232
1477479925.092:    206  43   5 1232
1477479925.092:    187  43   5 1232
1477479925.093:    178  43   5 1232
1477479925.094:    190  43   5 1232
1477479925.100:    214  43   5 1232
1477479925.100:    228  43   5 1232
1477479925.103:    225  43   5 1232
1477479925.103:    217  43   5 1232
1477479925.105:    219  43   5 1232
1477479925.106:    230  43   5 1232
1477479925.107:    235  43   5 1232
1477479925.110:    229  43   5 1232
1477479925.122:    218  43   5 1232
1477479925.122:    216  43   5 1232
1477479925.122:    219  43   5 1232
1477479925.123:    221  43   5 1232
1477479925.123:    216  43   5 1232
1477479925.123:    209  43   5 1232
1477479925.124:    206  43   5 1232
1477479925.126:    205  43   5 1232
1477479925.128:    201  43   5 1232
1477479925.130:    194  43   5 1232
1477479925.139:    189  43   5 1232
1477479925.139:    187  43   5 1232
1477479925.139:    184  43   5 1232
1477479925.140:    180  43   5 1232
1477479925.140:    176  43   5 1232
1477479925.141:    173  43   5 1232
1477479925.143:    169  43   5 1232
1477479925.144:    162  43   5 1232
1477479925.149:    152  43   5 1232
1477479925.149:    141  43   5 1232
1477479925.158:    123  43   5 1232
1477479925.158:     90  43   5 1232
1477479925.158:     47  43   5 1232
1477479925.158:     15  43   5 1232
1477479925.158:      7  43   5 1232
1477479925.164:     12  43   5 1232
1477479925.164:     -6  43   5 1232
1477479925.166:    -66  43   5 1232
1477479925.176:   -148  43   5 1232
1477479925.176:   -210  43   5 1232
1477479925.176:   -235  43   5 1232
1477479925.177:   -251  43   5 1232
1477479925.177:   -296  43   5 1232
1477479925.177:   -369  43   5 1232
1477479925.179:   -433  43   5 1232
1477479925.180:   -449  43   5 1232
1477479925.183:   -426  43   5 1232
1477479925.184:   -404  43   5 1232
1477479925.191:   -410  43   5 1232
1477479925.191:   -427  43   5 1232
1477479925.195:   -420  43   5 1232
1477479925.195:   -386  43   5 1232
1477479925.196:   -359  43   5 1232
1477479925.197:   -374  43   5 1232
1477479925.202:   -422  43   5 1232
1477479925.205:   -458  43   5 1232
1477479925.215:   -445  43   5 1232
1477479925.216:   -392  43   5 1232
1477479925.218:   -337  43   5 1232
1477479925.219:   -304  43   5 1232
1477479925.219:   -282  43   5 1232
1477479925.219:   -246  43   5 1232
1477479925.220:   -185  43   5 1232
1477479925.220:   -115  43   5 1232
1477479925.221:    -59  43   5 1232
1477479925.222:    -25  43   5 1232
1477479925.233:     -7  43   5 1232
1477479925.233:      3  43   5 1232
1477479925.234:      7  43   5 1232
1477479925.234:     11  43   5 1232
1477479925.235:     25  43   5 1232
1477479925.236:     62  43   5 1232
1477479925.236:    120  43   5 1232
1477479925.238:    182  43   5 1232
1477479925.239:    228  43   5 1232
1477479925.240:    255  43   5 1232
1477479925.245:    277  43   5 1232
1477479925.245:    310  43   5 1232
1477479925.258:    355  43   5 1232
1477479925.258:    400  43   5 1232
1477479925.258:    432  43   5 1232
1477479925.258:    447  43   5 1232
1477479925.258:    455  43   5 1232
1477479925.258:    471  43   5 1232
1477479925.259:    500  43   5 1232
1477479925.260:    538  43   5 1232
1477479925.262:    573  43   5 1232
1477479925.262:    594  43   5 1232
1477479925.268:    598  43   5 1232
1477479925.270:    589  43   5 1232
1477479925.270:    579  43   5 1232
1477479925.272:    573  43   5 1232
1477479925.286:    568  43   5 1232
1477479925.287:    562  43   5 1232
1477479925.288:    555  43   5 1232
1477479925.290:    554  43   5 1232
1477479925.291:    563  43   5 1232
1477479925.291:    577  43   5 1232
1477479925.292:    584  43   5 1232
1477479925.293:    577  43   5 1232
1477479925.293:    565  43   5 1232
1477479925.294:    557  43   5 1232
1477479925.305:    555  43   5 1232
1477479925.306:    549  43   5 1232
1477479925.307:    534  43   5 1232
1477479925.307:    518  43   5 1232
1477479925.308:    512  43   5 1232
1477479925.309:    519  43   5 1232
1477479925.310:    529  43   5 1232
1477479925.310:    527  43   5 1232
1477479925.311:    514  43   5 1232
1477479925.316:    502  43   5 1232
1477479925.335:    496  43   5 1232
1477479925.336:    492  43   5 1232
1477479925.337:    479  43   5 1232
1477479925.337:    458  43   5 1232
1477479925.338:    443  43   5 1232
1477479925.339:    439  43   5 1232
1477479925.340:    443  43   5 1232
1477479925.340:    441  43   5 1232
1477479925.341:    429  43   5 1232
1477479925.342:    414  43   5 1232
1477479925.342:    406  43   5 1232
1477479925.343:    407  43   5 1232
1477479925.345:    409  43   5 1232
1477479925.346:    408  43   5 1232
1477479925.347:    401  43   5 1232
1477479925.347:    392  43   5 1232
1477479925.349:    380  43   5 1232
1477479925.350:    367  43   5 1231
1477479925.370:    351  43   5 1231
1477479925.371:    336  43   5 1231
1477479925.371:    321  43   5 1231
1477479925.372:    307  43   5 1231
1477479925.373:    299  43   5 1231
1477479925.373:    308  43   5 1231
1477479925.374:    332  43   5 1231
1477479925.374:    354  43   5 1231
1477479925.375:    370  43   5 1231
1477479925.376:    402  43   5 1231
1477479925.376:    467  43   5 1231
1477479925.377:    548  43   5 1231
1477479925.377:    596  43   5 1231
1477479925.378:    599  43   5 1231
1477479925.390:    604  43   5 1231
1477479925.391:    663  43   5 1231
1477479925.391:    750  43   5 1231
1477479925.392:    782  43   5 1231
1477479925.392:    728  43   5 1231
1477479925.392:    680  43   5 1231
1477479925.392:    778  43   5 1231
1477479925.393:   1100  43   5 1231
1477479925.393:   1624  43   5 1231
1477479925.393:   2311  43   5 1231
1477479925.395:   3162  43   5 1231
1477479925.396:   4183  43   5 1231
1477479925.400:   5304  43   5 1231
1477479925.401:   6402  43   5 1231
1477479925.412:   7390  43   5 1231
1477479925.412:   8266  43   5 1231
1477479925.413:   9049  43   5 1231
1477479925.413:   9696  43   5 1231
1477479925.413:  10115  43   5 1231
1477479925.414:  10263  43   5 1231
1477479925.415:  10195  43   5 1231
1477479925.416:  10003  43   5 1231
1477479925.418:   9714  43   5 1231
1477479925.421:   9279  43   5 1231
1477479925.432:   8634  43   5 1231
1477479925.433:   7781  43   5 1231
1477479925.433:   6779  43   5 1231
1477479925.434:   5688  43   5 1231
1477479925.434:   4533  43   5 1231
1477479925.435:   3331  43   5 1231
1477479925.435:   2139  43   5 1231
1477479925.437:   1049  43   5 1231
1477479925.438:    136  43   5 1231
1477479925.442:   -578  43   5 1231
1477479925.442:  -1120  43   5 1231
1477479925.444:  -1513  43   5 1231
1477479925.445:  -1754  43   5 1231
1477479925.447:  -1840  43   5 1231
1477479925.465:  -1815  43   5 1231
1477479925.465:  -1764  43   5 1231
1477479925.466:  -1761  43   5 1231
1477479925.466:  -1828  43   5 1231
1477479925.466:  -1941  43   5 1231
1477479925.466:  -2064  43   5 1231
1477479925.466:  -2178  43   5 1231
1477479925.466:  -2266  43   5 1231
1477479925.470:  -2315  43   5 1231
1477479925.470:  -2317  43   5 1231
1477479925.470:  -2282  43   5 1231
1477479925.471:  -2235  43   5 1231
1477479925.473:  -2200  43   5 1231
1477479925.475:  -2191  43   5 1231
1477479925.478:  -2203  43   5 1231
1477479925.479:  -2217  43   5 1231
1477479925.491:  -2217  43   5 1231
1477479925.491:  -2200  43   5 1231
1477479925.491:  -2174  43   5 1231
1477479925.491:  -2146  43   5 1231
1477479925.491:  -2115  43   5 1231
1477479925.492:  -2076  43   5 1231
1477479925.494:  -2031  43   5 1231
1477479925.497:  -1990  43   5 1231
1477479925.498:  -1962  43   5 1231
1477479925.501:  -1947  43   5 1231
1477479925.511:  -1933  43   5 1231
1477479925.511:  -1908  43   5 1231
1477479925.511:  -1868  43   5 1231
1477479925.511:  -1820  43   5 1231
1477479925.511:  -1774  43   5 1231
1477479925.511:  -1742  43   5 1231
1477479925.515:  -1724  43   5 1231
1477479925.516:  -1708  43   5 1231
1477479925.517:  -1682  43   5 1231
1477479925.518:  -1639  43   5 1231
1477479925.527:  -1591  43   5 1231
1477479925.529:  -1556  43   5 1231
1477479925.530:  -1541  43   5 1231
1477479925.531:  -1534  43   5 1231
1477479925.531:  -1517  43   5 1231
1477479925.534:  -1482  43   5 1231
1477479925.534:  -1442  43   5 1231
1477479925.536:  -1416  43   5 1231
1477479925.538:  -1406  43   5 1231
1477479925.540:  -1400  43   5 1231
1477479925.557:  -1384  43   5 1231
1477479925.559:  -1358  43   5 1231
1477479925.559:  -1328  43   5 1231
1477479925.560:  -1301  43   5 1231
1477479925.560:  -1275  43   5 1231
1477479925.561:  -1250  43   5 1231
1477479925.561:  -1230  43   5 1231
1477479925.562:  -1216  43   5 1231
1477479925.562:  -1204  43   5 1231
1477479925.583:  -1186  43   5 1231
1477479925.594:  -1160  43   5 1231
1477479925.595:  -1132  43   5 1231
1477479925.595:  -1109  43   5 1231
1477479925.597:  -1096  43   5 1231
1477479925.599:  -1088  43   5 1231
1477479925.599:  -1080  43   5 1231
1477479925.600:  -1070  43   5 1231
1477479925.601:  -1057  43   5 1231
1477479925.601:  -1041  43   5 1231
1477479925.602:  -1025  43   5 1231
1477479925.602:  -1015  43   5 1231
1477479925.603:  -1013  43   5 1231
1477479925.615:  -1008  43   5 1231
1477479925.615:   -992  43   5 1231
1477479925.616:   -965  43   5 1231
1477479925.616:   -938  43   5 1231
1477479925.617:   -925  43   5 1231
1477479925.617:   -925  43   5 1231
1477479925.618:   -925  43   5 1231
1477479925.618:   -917  43   5 1231
1477479925.619:   -904  43   5 1231
1477479925.620:   -893  43   5 1231
1477479925.621:   -885  43   5 1231
1477479925.624:   -876  43   5 1231
1477479925.624:   -864  43   5 1231
1477479925.625:   -856  43   5 1231
1477479925.626:   -853  43   5 1231
1477479925.627:   -848  43   5 1231
1477479925.627:   -835  43   5 1231
1477479925.629:   -816  43   5 1231
1477479925.629:   -806  43   5 1231
1477479925.630:   -812  43   5 1231
1477479925.630:   -824  43   5 1231
1477479925.630:   -829  43   5 1231
1477479925.630:   -820  43   5 1231
1477479925.631:   -806  43   5 1231
1477479925.634:   -796  43   5 1231
1477479925.635:   -791  43   5 1231
1477479925.635:   -788  43   5 1231
1477479925.636:   -783  43   5 1231
1477479925.637:   -775  43   5 1231
1477479925.640:   -763  43   5 1231
1477479925.642:   -747  43   5 1231
1477479925.647:   -736  43   5 1231
1477479925.647:   -739  43   5 1231
1477479925.649:   -754  43   5 1231
1477479925.673:   -762  43   5 1231
1477479925.749:   -754  43   5 1231
1477479925.750:   -737  43   5 1231
1477479925.750:   -726  43   5 1231
1477479925.750:   -727  43   5 1231
1477479925.750:   -730  43   5 1231
1477479925.751:   -725  43   5 1231
1477479925.751:   -716  43   5 1231
1477479925.751:   -714  43   5 1231
1477479925.751:   -720  43   5 1231
1477479925.751:   -725  43   5 1231
1477479925.751:   -730  43   5 1231
1477479925.752:   -740  43   5 1231
1477479925.752:   -755  43   5 1231
1477479925.752:   -760  43   5 1231
1477479925.752:   -744  43   5 1231
1477479925.752:   -715  43   5 1231
1477479925.752:   -694  43   5 1231
1477479925.753:   -696  43   5 1231
1477479925.753:   -709  43   5 1231
1477479925.753:   -712  43   5 1231
1477479925.753:   -701  43   5 1231
1477479925.754:   -691  43   5 1231
1477479925.754:   -693  43   5 1231
1477479925.754:   -703  43   5 1231
1477479925.754:   -712  43   5 1231
1477479925.754:   -712  43   5 1231
1477479925.755:   -708  43   5 1231
1477479925.755:   -705  43   5 1231
1477479925.755:   -702  43   5 1231
1477479925.755:   -695  43   5 1231
1477479925.758:   -684  43   5 1231
1477479925.759:   -671  43   5 1231
1477479925.759:   -658  43   5 1231
1477479925.759:   -643  43   5 1231
1477479925.759:   -625  43   5 1231
1477479925.759:   -601  43   5 1231
1477479925.759:   -572  43   5 1231
1477479925.760:   -546  43   5 1231
1477479925.760:   -532  43   5 1231
1477479925.760:   -531  43   5 1231
1477479925.760:   -532  43   5 1231
1477479925.760:   -520  43   5 1231
1477479925.761:   -491  43   5 1231
1477479925.772:   -460  43   5 1231
1477479925.773:   -442  43   5 1231
1477479925.773:   -433  43   5 1231
1477479925.774:   -409  43   5 1231
1477479925.774:   -355  43   5 1231
1477479925.775:   -293  43   5 1231
1477479925.775:   -255  43   5 1231
1477479925.775:   -248  43   5 1231
1477479925.776:   -242  43   5 1231
1477479925.776:   -206  43   5 1231
1477479925.776:   -146  43   5 1231
1477479925.777:    -98  43   5 1231
1477479925.777:    -84  43   5 1231
1477479925.778:    -78  43   5 1231
1477479925.778:    -44  43   5 1231
1477479925.779:     24  43   5 1231
1477479925.791:     89  43   5 1231
1477479925.792:    125  43   5 1231
1477479925.794:    145  43   5 1231
1477479925.795:    186  43   5 1231
1477479925.796:    262  43   5 1231
1477479925.797:    347  43   5 1231
1477479925.811:    406  43   5 1231
1477479925.812:    433  43   5 1231
1477479925.813:    450  43   5 1231
1477479925.814:    478  43   5 1231
1477479925.815:    511  43   5 1231
1477479925.816:    535  43   5 1231
1477479925.816:    543  43   5 1231
1477479925.817:    542  43   5 1231
1477479925.818:    541  43   5 1231
1477479925.819:    540  43   5 1231
1477479925.819:    541  43   5 1231
1477479925.819:    546  43   5 1231
1477479925.831:    562  43   5 1231
1477479925.832:    589  43   5 1231
1477479925.832:    616  43   5 1231
1477479925.833:    636  43   5 1231
1477479925.834:    642  43   5 1231
1477479925.835:    640  43   5 1231
1477479925.835:    643  43   5 1231
1477479925.836:    654  43   5 1231
1477479925.837:    665  43   5 1231
1477479925.839:    664  43   5 1231
1477479925.849:    645  43   5 1231
1477479925.849:    617  43   5 1231
1477479925.849:    597  43   5 1231
1477479925.850:    590  43   5 1231
1477479925.850:    591  43   5 1231
1477479925.850:    592  43   5 1231
1477479925.850:    594  43   5 1231
1477479925.850:    601  43   5 1231
1477479925.851:    614  43   5 1231
1477479925.851:    622  43   5 1231
1477479925.851:    615  43   5 1231
1477479925.851:    597  43   5 1231
1477479925.851:    578  43   5 1231
1477479925.851:    566  43   5 1231
1477479925.852:    559  43   5 1231
1477479925.853:    551  43   5 1231
1477479925.857:    537  43   5 1231
1477479925.857:    522  43   5 1231
1477479925.859:    513  43   5 1231
1477479925.860:    512  43   5 1231
1477479925.861:    517  43   5 1231
1477479925.864:    522  43   5 1231
1477479925.866:    520  43   5 1231
1477479925.877:    507  43   5 1231
1477479925.878:    479  43   5 1231
1477479925.880:    438  43   5 1231
1477479925.880:    396  43   5 1231
1477479925.880:    365  43   5 1231
1477479925.881:    352  43   5 1231
1477479925.881:    352  43   5 1231
1477479925.884:    356  43   5 1231
1477479925.885:    358  43   5 1231
1477479925.911:    359  43   5 1231
1477479925.911:    366  43   5 1231
1477479925.912:    377  43   5 1231
1477479925.912:    383  43   5 1231
1477479925.913:    380  43   5 1231
1477479925.913:    372  43   5 1231
1477479925.913:    366  43   5 1231
1477479925.915:    362  43   5 1231
1477479925.915:    351  43   5 1231
1477479925.915:    330  43   5 1231
1477479925.916:    310  43   5 1231
1477479925.917:    303  43   5 1231
1477479925.917:    313  43   5 1231
1477479925.917:    323  43   5 1231
1477479925.918:    317  43   5 1231
1477479925.919:    298  43   5 1231
1477479925.919:    282  43   5 1231
1477479925.920:    278  43   5 1231
1477479925.921:    273  43   5 1231
1477479925.926:    255  43   5 1231
1477479925.927:    226  43   5 1231
1477479925.928:    200  43   5 1231
1477479925.930:    193  43   5 1231
1477479925.933:    207  43   5 1231
1477479925.935:    230  43   5 1231
1477479925.936:    249  43   5 1231
1477479925.937:    260  43   5 1231
1477479925.939:    265  43   5 1231
1477479925.950:    268  43   5 1231
1477479925.952:    277  43   5 1231
1477479925.952:    292  43   5 1231
1477479925.953:    299  43   5 1231
1477479925.953:    288  43   5 1231
1477479925.954:    264  43   5 1231
1477479925.955:    243  43   5 1231
1477479925.955:    233  43   5 1231
1477479925.956:    232  43   5 1231
1477479925.957:    231  43   5 1231
1477479925.960:    235  43   5 1231
1477479925.962:    257  43   5 1231
1477479925.968:    296  43   5 1231
1477479925.969:    326  43   5 1231
1477479925.970:    330  43   5 1231
1477479925.972:    315  43   5 1231
1477479925.972:    304  43   5 1231
1477479925.973:    311  43   5 1231
1477479925.974:    327  43   5 1231
1477479925.977:    337  43   5 1231
1477479925.980:    337  43   5 1231
1477479925.981:    335  43   5 1231
1477479925.985:    329  43   5 1231
1477479925.986:    315  43   5 1231
1477479925.989:    297  43   5 1231
1477479925.990:    293  43   5 1231
1477479925.991:    310  43   5 1231
1477479925.994:    332  43   5 1231
1477479925.994:    330  43   5 1231
1477479925.999:    299  43   5 1231
1477479925.999:    265  43   5 1231
1477479926.001:    262  43   5 1231
1477479926.003:    294  43   5 1231
1477479926.004:    334  43   5 1231
1477479926.024:    359  43   5 1231
1477479926.024:    369  43   5 1231
1477479926.024:    375  43   5 1231
1477479926.024:    379  43   5 1231
1477479926.024:    374  43   5 1231
1477479926.025:    359  43   5 1231
1477479926.025:    349  43   5 1231
1477479926.025:    358  43   5 1231
1477479926.025:    379  43   5 1231
1477479926.027:    386  43   5 1231
1477479926.027:    367  43   5 1231
1477479926.030:    335  43   5 1231
1477479926.030:    313  43   5 1231
1477479926.032:    310  43   5 1231
1477479926.033:    318  43   5 1231
1477479926.040:    323  43   5 1231
1477479926.048:    325  43   5 1231
1477479926.049:    331  43   5 1231
1477479926.049:    340  43   5 1231
1477479926.049:    343  43   5 1231
1477479926.050:    339  43   5 1231
1477479926.050:    337  43   5 1231
1477479926.050:    352  43   5 1231
1477479926.052:    381  43   5 1231
1477479926.056:    406  43   5 1231
1477479926.057:    408  43   5 1231
1477479926.058:    390  43   5 1231
1477479926.059:    369  43   5 1231
1477479926.061:    359  43   5 1231
1477479926.066:    356  43   5 1231
1477479926.080:    347  43   5 1231
1477479926.080:    327  43   5 1231
1477479926.080:    309  43   5 1231
1477479926.080:    305  43   5 1231
1477479926.080:    312  43   5 1231
1477479926.080:    315  43   5 1231
1477479926.081:    309  43   5 1231
1477479926.081:    305  43   5 1231
1477479926.081:    317  43   5 1231
1477479926.085:    344  43   5 1231
1477479926.085:    364  43   5 1231
1477479926.087:    359  43   5 1231
1477479926.091:    331  43   5 1231
1477479926.095:    302  43   5 1231
1477479926.095:    294  43   5 1231
1477479926.096:    312  43   5 1231
1477479926.097:    339  43   5 1231
1477479926.098:    352  43   5 1231
1477479926.116:    338  43   5 1231
1477479926.116:    307  43   5 1231
1477479926.116:    286  43   5 1231
1477479926.116:    290  43   5 1231
1477479926.116:    312  43   5 1231
1477479926.117:    325  43   5 1231
1477479926.117:    313  43   5 1231
1477479926.117:    286  43   5 1231
1477479926.118:    270  43   5 1231
1477479926.122:    280  43   5 1231
1477479926.122:    311  43   5 1231
1477479926.125:    342  43   5 1231
1477479926.125:    356  43   5 1231
1477479926.126:    344  43   5 1231
1477479926.128:    313  43   5 1231
1477479926.133:    281  43   5 1231
1477479926.148:    265  43   5 1231
1477479926.148:    271  43   5 1231
1477479926.148:    281  43   5 1231
1477479926.148:    266  43   5 1231
1477479926.148:    214  43   5 1231
1477479926.148:    143  43   5 1231
1477479926.148:     84  43   5 1231
1477479926.149:     51  43   5 1231
1477479926.149:     25  43   5 1231
1477479926.151:    -23  43   5 1231
1477479926.152:   -107  43   5 1231
1477479926.154:   -207  43   5 1231
1477479926.156:   -282  43   5 1231
1477479926.159:   -307  43   5 1231
1477479926.163:   -293  43   5 1231
1477479926.163:   -271  43   5 1231
1477479926.165:   -267  43   5 1231
1477479926.168:   -280  43   5 1231
1477479926.178:   -288  43   5 1231
1477479926.178:   -279  43   5 1231
1477479926.178:   -268  43   5 1231
1477479926.179:   -270  43   5 1231
1477479926.179:   -287  43   5 1231
1477479926.179:   -297  43   5 1231
1477479926.180:   -286  43   5 1231
1477479926.181:   -260  43   5 1231
1477479926.183:   -233  43   5 1231
1477479926.186:   -202  43   5 1231
1477479926.191:   -152  43   5 1231
1477479926.192:    -78  43   5 1231
1477479926.198:      5  43   5 1231
1477479926.198:     70  43   5 1231
1477479926.198:    102  43   5 1231
1477479926.199:    110  43   5 1231
1477479926.200:    107  43   5 1231
1477479926.204:    108  43   5 1231
1477479926.204:    115  43   5 1231
1477479926.207:    129  43   5 1231
1477479926.207:    147  43   5 1231
1477479926.208:    167  43   5 1231
1477479926.211:    190  43   5 1231
1477479926.213:    224  43   5 1231
1477479926.231:    272  43   5 1231
1477479926.232:    331  43   5 1231
1477479926.232:    389  43   5 1231
1477479926.233:    434  43   5 1231
1477479926.233:    466  43   5 1231
1477479926.234:    490  43   5 1231
1477479926.235:    511  43   5 1231
1477479926.236:    533  43   5 1231
1477479926.236:    555  43   5 1231
1477479926.237:    577  43   5 1231
1477479926.237:    600  43   5 1231
1477479926.237:    620  43   5 1231
1477479926.239:    633  43   5 1231
1477479926.241:    639  43   5 1231
1477479926.243:    642  43   5 1231
1477479926.244:    647  43   5 1231
1477479926.254:    653  43   5 1231
1477479926.255:    655  43   5 1231
1477479926.255:    648  43   5 1231
1477479926.255:    638  43   5 1231
1477479926.256:    633  43   5 1231
1477479926.256:    636  43   5 1231
1477479926.258:    643  43   5 1231
1477479926.260:    643  43   5 1231
1477479926.265:    638  43   5 1231
1477479926.265:    634  43   5 1231
1477479926.268:    634  43   5 1231
1477479926.268:    632  43   5 1231
1477479926.270:    620  43   5 1231
1477479926.273:    598  43   5 1231
1477479926.274:    578  43   5 1231
1477479926.278:    570  43   5 1231
1477479926.278:    571  43   5 1231
1477479926.280:    568  43   5 1231
1477479926.294:    558  43   5 1231
1477479926.294:    545  43   5 1231
1477479926.294:    535  43   5 1231
1477479926.312:    530  43   5 1231
1477479926.313:    521  43   5 1231
1477479926.313:    508  43   5 1231
1477479926.313:    494  43   5 1231
1477479926.315:    485  43   5 1231
1477479926.316:    483  43   5 1231
1477479926.319:    482  43   5 1231
1477479926.320:    478  43   5 1231
1477479926.321:    474  43   5 1231
1477479926.325:    472  43   5 1231
1477479926.327:    470  43   5 1231
1477479926.327:    463  43   5 1231
1477479926.328:    448  43   5 1231
1477479926.329:    429  43   5 1231
1477479926.329:    411  43   5 1231
1477479926.330:    400  43   5 1231
1477479926.330:    391  43   5 1231
1477479926.330:    380  43   5 1231
1477479926.330:    366  43   5 1231
1477479926.331:    348  43   5 1231
1477479926.331:    332  43   5 1231
1477479926.331:    319  50   6 1231
1477479926.335:    304  50   6 1231
1477479926.336:    285  50   6 1231
1477479926.337:    274  50   6 1231
1477479926.337:    285  50   6 1231
1477479926.341:    308  50   6 1231
1477479926.354:    326  50   6 1231
1477479926.354:    341  50   6 1231
1477479926.355:    373  50   6 1231
1477479926.355:    432  50   6 1231
1477479926.355:    489  50   6 1231
1477479926.355:    513  50   6 1231
1477479926.356:    516  50   6 1231
1477479926.356:    542  50   6 1231
1477479926.361:    602  50   6 1231
1477479926.361:    637  50   6 1231
1477479926.362:    602  50   6 1231
1477479926.363:    550  50   6 1231
1477479926.363:    616  50   6 1231
1477479926.366:    886  50   6 1231
1477479926.369:   1343  50   6 1231
1477479926.373:   1928  50   6 1231
1477479926.382:   2641  50   6 1231
1477479926.382:   3532  50   6 1231
1477479926.382:   4579  50   6 1231
1477479926.383:   5644  50   6 1231
1477479926.383:   6586  50   6 1231
1477479926.385:   7381  50   6 1231
1477479926.393:   8096  50   6 1231
1477479926.394:   8748  50   6 1231
1477479926.394:   9247  50   6 1231
1477479926.394:   9496  50   6 1231
1477479926.395:   9510  50   6 1231
1477479926.396:   9403  50   6 1231
1477479926.396:   9245  50   6 1231
1477479926.401:   8980  50   6 1231
1477479926.401:   8501  50   6 1231
1477479926.402:   7779  50   6 1231
1477479926.403:   6893  50   6 1231
1477479926.405:   5930  50   6 1231
1477479926.407:   4905  50   6 1231
1477479926.410:   3790  50   6 1231
1477479926.424:   2610  50   6 1231
1477479926.424:   1473  50   6 1231
1477479926.424:    495  50   6 1231
1477479926.425:   -276  50   6 1231
1477479926.425:   -861  50   6 1231
1477479926.425:  -1293  50   6 1231
1477479926.425:  -1575  50   6 1231
1477479926.428:  -1707  50   6 1231
1477479926.428:  -1727  50   6 1231
1477479926.430:  -1703  50   6 1231
1477479926.431:  -1693  50   6 1231
1477479926.433:  -1718  50   6 1231
1477479926.435:  -1778  50   6 1231
1477479926.438:  -1875  50   6 1231
1477479926.448:  -2000  50   6 1231
1477479926.450:  -2124  50   6 1231
1477479926.450:  -2199  50   6 1231
1477479926.451:  -2207  50   6 1231
1477479926.451:  -2176  50   6 1231
1477479926.451:  -2148  50   6 1231
1477479926.451:  -2138  50   6 1231
1477479926.456:  -2134  50   6 1231
1477479926.456:  -2129  50   6 1231
1477479926.458:  -2129  50   6 1231
1477479926.459:  -2140  50   6 1231
1477479926.459:  -2151  50   6 1231
1477479926.468:  -2139  50   6 1231
1477479926.468:  -2098  50   6 1231
1477479926.469:  -2045  50   6 1231
1477479926.469:  -2000  50   6 1231
1477479926.472:  -1971  50   6 1231
1477479926.475:  -1952  50   6 1231
1477479926.475:  -1935  50   6 1231
1477479926.476:  -1916  50   6 1231
1477479926.478:  -1897  50   6 1231
1477479926.484:  -1872  50   6 1231
1477479926.493:  -1837  50   6 1231
1477479926.493:  -1795  50   6 1231
1477479926.494:  -1758  50   6 1231
1477479926.495:  -1730  50   6 1231
1477479926.495:  -1706  50   6 1231
1477479926.496:  -1680  50   6 1231
1477479926.496:  -1652  50   6 1231
1477479926.500:  -1626  50   6 1231
1477479926.500:  -1604  50   6 1231
1477479926.501:  -1583  50   6 1231
1477479926.515:  -1562  50   6 1231
1477479926.515:  -1540  50   6 1231
1477479926.515:  -1524  50   6 1231
1477479926.516:  -1510  50   6 1231
1477479926.516:  -1496  50   6 1231
1477479926.516:  -1479  50   6 1231
1477479926.517:  -1463  50   6 1231
1477479926.517:  -1449  50   6 1231
1477479926.517:  -1435  50   6 1231
1477479926.520:  -1417  50   6 1231
1477479926.521:  -1395  50   6 1231
1477479926.529:  -1371  50   6 1231
1477479926.529:  -1346  50   6 1231
1477479926.529:  -1322  50   6 1231
1477479926.530:  -1298  50   6 1231
1477479926.531:  -1276  50   6 1231
1477479926.534:  -1258  50   6 1231
1477479926.535:  -1239  50   6 1231
1477479926.537:  -1216  50   6 1231
1477479926.538:  -1191  50   6 1231
1477479926.552:  -1168  50   6 1231
1477479926.553:  -1150  50   6 1231
1477479926.553:  -1135  50   6 1231
1477479926.553:  -1119  50   6 1231
1477479926.554:  -1100  50   6 1231
1477479926.554:  -1080  50   6 1231
1477479926.554:  -1060  50   6 1231
1477479926.557:  -1040  50   6 1231
1477479926.558:  -1022  50   6 1231
1477479926.559:  -1006  50   6 1231
1477479926.560:   -992  50   6 1231
1477479926.562:   -979  50   6 1231
1477479926.565:   -965  50   6 1231
1477479926.566:   -951  50   6 1231
1477479926.570:   -938  50   6 1231
1477479926.571:   -929  50   6 1231
1477479926.573:   -924  50   6 1231
1477479926.575:   -918  50   6 1231
1477479926.576:   -910  50   6 1231
1477479926.577:   -902  50   6 1231
1477479926.591:   -895  50   6 1231
1477479926.594:   -889  50   6 1231
1477479926.595:   -880  50   6 1231
1477479926.596:   -868  50   6 1231
1477479926.596:   -856  50   6 1231
1477479926.597:   -845  50   6 1231
1477479926.610:   -836  50   6 1231
1477479926.611:   -826  50   6 1231
1477479926.611:   -814  50   6 1231
1477479926.612:   -801  50   6 1231
1477479926.612:   -792  50   6 1231
1477479926.612:   -785  50   6 1231
1477479926.613:   -781  50   6 1231
1477479926.613:   -781  50   6 1231
1477479926.613:   -786  50   6 1231
1477479926.616:   -790  50   6 1231
1477479926.616:   -791  50   6 1231
1477479926.616:   -786  50   6 1231
1477479926.617:   -779  50   6 1231
1477479926.618:   -772  50   6 1231
1477479926.619:   -767  50   6 1231
1477479926.624:   -763  50   6 1231
1477479926.625:   -757  50   6 1231
1477479926.626:   -750  50   6 1231
1477479926.628:   -746  50   6 1231
1477479926.629:   -746  50   6 1231
1477479926.634:   -751  50   6 1231
1477479926.702:   -757  50   6 1231
1477479926.703:   -763  50   6 1231
1477479926.703:   -766  50   6 1231
1477479926.703:   -764  50   6 1231
1477479926.703:   -757  50   6 1231
1477479926.703:   -746  50   6 1231
1477479926.703:   -738  50   6 1231
1477479926.720:   -737  50   6 1231
1477479926.720:   -741  50   6 1231
1477479926.720:   -744  50   6 1231
1477479926.721:   -742  50   6 1231
1477479926.721:   -737  50   6 1231
1477479926.721:   -736  50   6 1231
1477479926.721:   -740  50   6 1231
1477479926.722:   -742  50   6 1231
1477479926.723:   -736  50   6 1231
1477479926.724:   -725  50   6 1231
1477479926.724:   -719  50   6 1231
1477479926.725:   -722  50   6 1231
1477479926.725:   -729  50   6 1231
1477479926.725:   -730  50   6 1231
1477479926.726:   -723  50   6 1231
1477479926.726:   -714  50   6 1231
1477479926.726:   -712  50   6 1231
1477479926.727:   -715  50   6 1231
1477479926.727:   -712  50   6 1231
1477479926.727:   -701  50   6 1231
1477479926.727:   -686  50   6 1231
1477479926.727:   -676  50   6 1231
1477479926.728:   -671  50   6 1231
1477479926.729:   -665  50   6 1231
1477479926.729:   -652  50   6 1231
1477479926.729:   -630  50   6 1231
1477479926.729:   -605  50   6 1231
1477479926.729:   -579  50   6 1231
1477479926.729:   -551  50   6 1231
1477479926.730:   -522  50   6 1231
1477479926.730:   -494  50   6 1231
1477479926.730:   -469  50   6 1231
1477479926.730:   -444  50   6 1231
1477479926.730:   -420  50   6 1231
1477479926.730:   -398  50   6 1231
1477479926.731:   -381  50   6 1231
1477479926.753:   -366  50   6 1231
1477479926.753:   -345  50   6 1231
1477479926.753:   -314  50   6 1231
1477479926.757:   -283  50   6 1231
1477479926.758:   -258  50   6 1231
1477479926.758:   -239  50   6 1231
1477479926.759:   -214  50   6 1231
1477479926.759:   -177  50   6 1231
1477479926.759:   -137  50   6 1231
1477479926.759:   -103  50   6 1231
1477479926.760:    -75  50   6 1231
1477479926.760:    -39  50   6 1231
1477479926.761:     10  50   6 1231
1477479926.762:     61  50   6 1231
1477479926.766:    100  50   6 1231
1477479926.767:    126  50   6 1231
1477479926.767:    155  50   6 1231
1477479926.767:    196  50   6 1231
1477479926.768:    239  50   6 1231
1477479926.768:    270  50   6 1231
1477479926.769:    288  50   6 1231
1477479926.769:    308  50   6 1231
1477479926.769:    339  50   6 1231
1477479926.769:    373  50   6 1231
1477479926.770:    397  50   6 1231
1477479926.772:    408  50   6 1231
1477479926.772:    417  50   6 1231
1477479926.773:    434  50   6 1231
1477479926.776:    454  50   6 1231
1477479926.776:    474  50   6 1231
1477479926.779:    492  50   6 1231
1477479926.780:    512  50   6 1231
1477479926.796:    534  50   6 1231
1477479926.796:    552  50   6 1231
1477479926.797:    561  50   6 1231
1477479926.797:    563  50   6 1231
1477479926.798:    565  50   6 1231
1477479926.798:    568  50   6 1231
1477479926.798:    565  50   6 1231
1477479926.798:    554  50   6 1231
1477479926.799:    540  50   6 1231
1477479926.800:    532  50   6 1231
1477479926.800:    537  50   6 1231
1477479926.803:    549  50   6 1231
1477479926.804:    560  50   6 1231
1477479926.808:    561  50   6 1231
1477479926.816:    555  50   6 1231
1477479926.817:    552  50   6 1231
1477479926.817:    554  50   6 1231
1477479926.818:    555  50   6 1231
1477479926.818:    549  50   6 1231
1477479926.820:    537  50   6 1231
1477479926.823:    524  50   6 1231
1477479926.824:    517  50   6 1231
1477479926.824:    512  50   6 1231
1477479926.826:    500  50   6 1231
1477479926.828:    481  50   6 1231
1477479926.830:    463  50   6 1231
1477479926.831:    450  50   6 1231
1477479926.835:    439  50   6 1231
1477479926.835:    424  50   6 1231
1477479926.863:    405  50   6 1231
1477479926.864:    390  50   6 1231
1477479926.868:    382  50   6 1231
1477479926.869:    375  50   6 1231
1477479926.869:    361  50   6 1231
1477479926.869:    341  50   6 1231
1477479926.870:    324  50   6 1231
1477479926.870:    314  50   6 1231
1477479926.870:    310  50   6 1231
1477479926.870:    304  50   6 1231
1477479926.870:    294  50   6 1231
1477479926.871:    285  50   6 1231
1477479926.871:    281  50   6 1231
1477479926.871:    282  50   6 1231
1477479926.871:    283  50   6 1231
1477479926.873:    278  50   6 1231
1477479926.873:    269  50   6 1231
1477479926.874:    258  50   6 1231
1477479926.875:    245  50   6 1231
1477479926.879:    229  50   6 1231
1477479926.879:    214  50   6 1231
1477479926.880:    203  50   6 1231
1477479926.884:    197  50   6 1231
1477479926.904:    194  50   6 1231
1477479926.904:    187  50   6 1231
1477479926.904:    176  50   6 1231
1477479926.905:    164  50   6 1231
1477479926.905:    158  50   6 1231
1477479926.905:    155  50   6 1231
1477479926.905:    150  50   6 1231
1477479926.905:    142  50   6 1231
1477479926.906:    136  50   6 1231
1477479926.906:    136  50   6 1231
1477479926.906:    137  50   6 1231
1477479926.906:    133  50   6 1231
1477479926.906:    121  50   6 1231
1477479926.909:    109  50   6 1231
1477479926.909:    109  50   6 1231
1477479926.911:    116  50   6 1231
1477479926.916:    120  50   6 1231
1477479926.917:    112  50   6 1231
1477479926.935:     98  50   6 1231
1477479926.936:     90  50   6 1231
1477479926.936:     95  50   6 1231
1477479926.936:    105  50   6 1231
1477479926.936:    106  50   6 1231
1477479926.937:     97  50   6 1231
1477479926.937:     85  50   6 1231
1477479926.937:     79  50   6 1231
1477479926.937:     79  50   6 1231
1477479926.937:     78  50   6 1231
1477479926.938:     73  50   6 1231
1477479926.942:     69  50   6 1231
1477479926.945:     72  50   6 1231
1477479926.945:     81  50   6 1231
1477479926.946:     85  50   6 1231
1477479926.948:     77  50   6 1231
1477479926.950:     65  50   6 1231
1477479926.951:     63  50   6 1231
1477479926.963:     76  50   6 1231
1477479926.964:     95  50   6 1231
1477479926.965:    106  50   6 1231
1477479926.966:    109  50   6 1231
1477479926.967:    115  50   6 1231
1477479926.968:    130  50   6 1231
1477479926.969:    150  50   6 1231
1477479926.970:    161  50   6 1231
1477479926.973:    164  50   6 1231
1477479926.973:    164  50   6 1231
1477479926.977:    167  50   6 1231
1477479926.977:    171  50   6 1231
1477479926.977:    167  50   6 1231
1477479926.979:    157  50   6 1231
1477479926.993:    150  50   6 1231
1477479926.994:    152  50   6 1231
1477479926.996:    156  50   6 1231
1477479926.996:    152  50   6 1231
1477479926.999:    135  50   6 1231
1477479926.999:    117  50   6 1231
1477479926.999:    111  50   6 1231
1477479926.999:    119  50   6 1231
1477479927.000:    125  50   6 1231
1477479927.000:    116  50   6 1231
1477479927.001:     97  50   6 1231
1477479927.002:     86  50   6 1231
1477479927.020:     92  50   6 1231
1477479927.020:    105  50   6 1231
1477479927.020:    102  50   6 1231
1477479927.020:     80  50   6 1231
1477479927.020:     56  50   6 1231
1477479927.020:     48  50   6 1231
1477479927.020:     55  50   6 1231
1477479927.021:     60  50   6 1231
1477479927.021:     53  50   6 1231
1477479927.023:     43  50   6 1231
1477479927.027:     43  50   6 1231
1477479927.027:     53  50   6 1231
1477479927.029:     63  50   6 1231
1477479927.030:     63  50   6 1231
1477479927.031:     57  50   6 1231
1477479927.034:     56  50   6 1231
1477479927.036:     63  50   6 1231
1477479927.041:     73  50   6 1231
1477479927.052:     79  50   6 1231
1477479927.052:     78  50   6 1231
1477479927.052:     76  50   6 1231
1477479927.053:     79  50   6 1231
1477479927.053:     90  50   6 1231
1477479927.053:    107  50   6 1231
1477479927.055:    123  50   6 1231
1477479927.056:    133  50   6 1231
1477479927.058:    137  50   6 1231
1477479927.058:    138  50   6 1231
1477479927.059:    139  50   6 1231
1477479927.062:    142  50   6 1231
1477479927.065:    144  50   6 1231
1477479927.069:    144  50   6 1231
1477479927.074:    142  50   6 1231
1477479927.075:    134  50   6 1231
1477479927.075:    120  50   6 1231
1477479927.076:    105  50   6 1231
1477479927.076:     96  50   6 1231
1477479927.078:     99  50   6 1231
1477479927.079:    113  50   6 1231
1477479927.081:    129  50   6 1231
1477479927.082:    139  50   6 1231
1477479927.087:    143  50   6 1231
1477479927.087:    147  50   6 1231
1477479927.093:    156  50   6 1231
1477479927.095:    170  50   6 1231
1477479927.096:    180  50   6 1231
1477479927.096:    186  50   6 1231
1477479927.097:    190  50   6 1231
1477479927.132:    198  50   6 1231
1477479927.133:    212  50   6 1231
1477479927.134:    226  50   6 1231
1477479927.135:    233  50   6 1231
1477479927.135:    234  50   6 1231
1477479927.136:    235  50   6 1231
1477479927.137:    239  50   6 1231
1477479927.138:    240  50   6 1231
1477479927.139:    231  50   6 1231
1477479927.139:    215  50   6 1231
1477479927.140:    199  50   6 1231
1477479927.140:    186  50   6 1231
1477479927.140:    175  50   6 1231
1477479927.140:    164  50   6 1231
1477479927.140:    151  50   6 1231
1477479927.141:    136  50   6 1231
1477479927.141:    115  50   6 1231
1477479927.141:     93  50   6 1231
1477479927.141:     76  50   6 1231
1477479927.142:     70  50   6 1231
1477479927.142:     66  50   6 1231
1477479927.142:     43  50   6 1231
1477479927.160:     -8  50   6 1231
1477479927.160:    -79  50   6 1231
1477479927.160:   -152  50   6 1231
1477479927.161:   -219  50   6 1231
1477479927.161:   -285  50   6 1231
1477479927.161:   -353  50   6 1231
1477479927.161:   -414  50   6 1231
1477479927.162:   -452  50   6 1231
1477479927.162:   -463  50   6 1231
1477479927.162:   -454  50   6 1231
1477479927.162:   -429  50   6 1231
1477479927.163:   -391  50   6 1231
1477479927.167:   -350  50   6 1231
1477479927.171:   -321  50   6 1231
1477479927.180:   -319  50   6 1231
1477479927.180:   -339  50   6 1231
1477479927.180:   -366  50   6 1231
1477479927.181:   -386  50   6 1231
1477479927.181:   -400  50   6 1231
1477479927.182:   -410  50   6 1231
1477479927.182:   -408  50   6 1231
1477479927.184:   -379  50   6 1231
1477479927.187:   -322  50   6 1231
1477479927.187:   -253  50   6 1231
1477479927.190:   -185  50   6 1231
1477479927.190:   -122  50   6 1231
1477479927.199:    -58  50   6 1231
1477479927.200:      0  50   6 1231
1477479927.201:     36  50   6 1231
1477479927.201:     42  50   6 1231
1477479927.202:     30  50   6 1231
1477479927.202:     20  50   6 1231
1477479927.205:     22  50   6 1231
1477479927.209:     30  50   6 1231
1477479927.222:     37  50   6 1231
1477479927.223:     50  50   6 1231
1477479927.223:     80  50   6 1231
1477479927.223:    126  50   6 1231
1477479927.223:    174  50   6 1231
1477479927.223:    214  50   6 1231
1477479927.223:    251  50   6 1231
1477479927.224:    296  50   6 1231
1477479927.224:    346  50   6 1231
1477479927.228:    389  50   6 1231
1477479927.228:    415  50   6 1231
1477479927.230:    434  50   6 1231
1477479927.232:    456  50   6 1231
1477479927.236:    479  50   6 1231
1477479927.244:    491  50   6 1231
1477479927.245:    486  50   6 1231
1477479927.245:    477  50   6 1231
1477479927.245:    479  50   6 1231
1477479927.246:    490  50   6 1231
1477479927.246:    495  50   6 1231
1477479927.247:    487  50   6 1231
1477479927.253:    473  50   6 1231
1477479927.254:    469  50   6 1231
1477479927.256:    482  50   6 1231
1477479927.257:    501  50   6 1231
1477479927.258:    516  50   6 1231
1477479927.260:    521  50   6 1231
1477479927.264:    519  50   6 1231
1477479927.276:    511  50   6 1231
1477479927.276:    496  50   6 1231
1477479927.277:    478  50   6 1231
1477479927.277:    463  50   6 1231
1477479927.277:    456  50   6 1231
1477479927.277:    456  50   6 1231
1477479927.278:    458  50   6 1231
1477479927.278:    455  50   6 1231
1477479927.280:    449  50   6 1231
1477479927.285:    444  50   6 1231
1477479927.285:    444  50   6 1231
1477479927.285:    443  50   6 1231
1477479927.296:    435  50   6 1231
1477479927.297:    414  50   6 1231
1477479927.297:    384  50   6 1231
1477479927.297:    351  50   6 1231
1477479927.297:    323  50   6 1231
1477479927.297:    300  50   6 1231
1477479927.299:    283  50   6 1231
1477479927.301:    271  50   6 1231
1477479927.305:    264  50   6 1231
1477479927.305:    258  50   6 1231
1477479927.316:    251  50   6 1231
1477479927.316:    240  56   7 1229
1477479927.317:    230  56   7 1229
1477479927.317:    227  56   7 1229
1477479927.317:    229  56   7 1229
1477479927.319:    231  56   7 1229
1477479927.319:    226  56   7 1229
1477479927.321:    218  56   7 1229
1477479927.322:    213  56   7 1229
1477479927.323:    212  56   7 1229
1477479927.326:    206  56   7 1229
1477479927.329:    189  56   7 1229
1477479927.333:    175  56   7 1229
1477479927.333:    182  56   7 1229
1477479927.335:    207  56   7 1229
1477479927.336:    225  56   7 1229
1477479927.337:    236  56   7 1229
1477479927.343:    264  56   7 1229
1477479927.343:    329  56   7 1229
1477479927.347:    408  56   7 1229
1477479927.347:    456  56   7 1229
1477479927.349:    467  56   7 1229
1477479927.350:    490  56   7 1229
1477479927.351:    555  56   7 1229
1477479927.353:    618  56   7 1229
1477479927.356:    609  56   7 1229
1477479927.371:    547  56   7 1229
1477479927.371:    552  56   7 1229
1477479927.371:    748  56   7 1229
1477479927.371:   1165  56   7 1229
1477479927.372:   1757  56   7 1229
1477479927.372:   2495  56   7 1229
1477479927.372:   3398  56   7 1229
1477479927.373:   4462  56   7 1229
1477479927.374:   5590  56   7 1229
1477479927.375:   6645  56   7 1229
1477479927.379:   7562  56   7 1229
1477479927.379:   8361  56   7 1229
1477479927.393:   9065  56   7 1229
1477479927.393:   9620  56   7 1229
1477479927.393:   9937  56   7 1229
1477479927.394:   9991  56   7 1229
1477479927.394:   9857  56   7 1229
1477479927.395:   9622  56   7 1229
1477479927.395:   9294  56   7 1229
1477479927.395:   8803  56   7 1229
1477479927.396:   8098  56   7 1229
1477479927.398:   7209  56   7 1229
1477479927.401:   6210  56   7 1229
1477479927.402:   5149  56   7 1229
1477479927.406:   4026  56   7 1229
1477479927.407:   2850  56   7 1229
1477479927.408:   1699  56   7 1229
1477479927.409:    681  56   7 1229
1477479927.412:   -134  56   7 1229
1477479927.414:   -756  56   7 1229
1477479927.428:  -1230  56   7 1229
1477479927.428:  -1569  56   7 1229
1477479927.428:  -1752  56   7 1229
1477479927.428:  -1783  56   7 1229
1477479927.429:  -1732  56   7 1229
1477479927.429:  -1693  56   7 1229
1477479927.429:  -1726  56   7 1229
1477479927.430:  -1823  56   7 1229
1477479927.434:  -1946  56   7 1229
1477479927.434:  -2062  56   7 1229
1477479927.439:  -2161  56   7 1229
1477479927.439:  -2237  56   7 1229
1477479927.447:  -2278  56   7 1229
1477479927.447:  -2276  56   7 1229
1477479927.447:  -2238  56   7 1229
1477479927.447:  -2188  56   7 1229
1477479927.450:  -2151  56   7 1229
1477479927.451:  -2143  56   7 1229
1477479927.452:  -2162  56   7 1229
1477479927.453:  -2185  56   7 1229
1477479927.454:  -2194  56   7 1229
1477479927.460:  -2180  56   7 1229
1477479927.460:  -2147  56   7 1229
1477479927.462:  -2103  56   7 1229
1477479927.463:  -2057  56   7 1229
1477479927.466:  -2018  56   7 1229
1477479927.467:  -1992  56   7 1229
1477479927.468:  -1976  56   7 1229
1477479927.471:  -1962  56   7 1229
1477479927.478:  -1941  56   7 1229
1477479927.490:  -1916  56   7 1229
1477479927.491:  -1889  56   7 1229
1477479927.491:  -1859  56   7 1229
1477479927.491:  -1820  56   7 1229
1477479927.491:  -1773  56   7 1229
1477479927.491:  -1729  56   7 1229
1477479927.491:  -1701  56   7 1229
1477479927.492:  -1686  56   7 1229
1477479927.493:  -1670  56   7 1229
1477479927.493:  -1645  56   7 1229
1477479927.495:  -1618  56   7 1229
1477479927.497:  -1598  56   7 1229
1477479927.498:  -1589  56   7 1229
1477479927.501:  -1583  56   7 1229
1477479927.502:  -1568  56   7 1229
1477479927.507:  -1544  56   7 1229
1477479927.521:  -1519  56   7 1229
1477479927.522:  -1499  56   7 1229
1477479927.522:  -1484  56   7 1229
1477479927.522:  -1472  56   7 1229
1477479927.522:  -1463  56   7 1229
1477479927.522:  -1453  56   7 1229
1477479927.523:  -1438  56   7 1229
1477479927.523:  -1413  56   7 1229
1477479927.523:  -1380  56   7 1229
1477479927.525:  -1350  56   7 1229
1477479927.530:  -1330  56   7 1229
1477479927.530:  -1315  56   7 1229
1477479927.544:  -1294  56   7 1229
1477479927.544:  -1262  56   7 1229
1477479927.544:  -1227  56   7 1229
1477479927.545:  -1202  56   7 1229
1477479927.545:  -1188  56   7 1229
1477479927.545:  -1177  56   7 1229
1477479927.546:  -1158  56   7 1229
1477479927.546:  -1133  56   7 1229
1477479927.546:  -1111  56   7 1229
1477479927.547:  -1100  56   7 1229
1477479927.550:  -1093  56   7 1229
1477479927.552:  -1081  56   7 1229
1477479927.557:  -1064  56   7 1229
1477479927.557:  -1049  56   7 1229
1477479927.559:  -1041  56   7 1229
1477479927.561:  -1036  56   7 1229
1477479927.563:  -1023  56   7 1229
1477479927.563:  -1001  56   7 1229
1477479927.566:   -979  56   7 1229
1477479927.570:   -966  56   7 1229
1477479927.571:   -959  56   7 1229
1477479927.573:   -950  56   7 1229
1477479927.573:   -937  56   7 1229
1477479927.575:   -923  56   7 1229
1477479927.592:   -913  56   7 1229
1477479927.592:   -907  56   7 1229
1477479927.592:   -901  56   7 1229
1477479927.592:   -898  56   7 1229
1477479927.593:   -899  56   7 1229
1477479927.593:   -901  56   7 1229
1477479927.593:   -898  56   7 1229
1477479927.593:   -887  56   7 1229
1477479927.594:   -874  56   7 1229
1477479927.598:   -864  56   7 1229
1477479927.599:   -857  56   7 1229
1477479927.599:   -847  56   7 1229
1477479927.601:   -833  56   7 1229
1477479927.604:   -820  56   7 1229
1477479927.605:   -815  56   7 1229
1477479927.608:   -811  56   7 1229
1477479927.621:   -802  56   7 1229
1477479927.692:   -790  56   7 1229
1477479927.693:   -785  56   7 1229
1477479927.693:   -795  56   7 1229
1477479927.693:   -810  56   7 1229
1477479927.693:   -812  56   7 1229
1477479927.693:   -795  56   7 1229
1477479927.693:   -773  56   7 1229
1477479927.693:   -763  56   7 1229
1477479927.694:   -771  56   7 1229
1477479927.694:   -783  56   7 1229
1477479927.694:   -784  56   7 1229
1477479927.695:   -775  56   7 1229
1477479927.695:   -768  56   7 1229
1477479927.695:   -770  56   7 1229
1477479927.695:   -775  56   7 1229
1477479927.695:   -775  56   7 1229
1477479927.695:   -769  56   7 1229
1477479927.695:   -765  56   7 1229
1477479927.695:   -764  56   7 1229
1477479927.696:   -764  56   7 1229
1477479927.696:   -760  56   7 1229
1477479927.696:   -757  56   7 1229
1477479927.696:   -762  56   7 1229
1477479927.696:   -773  56   7 1229
1477479927.696:   -781  56   7 1229
1477479927.696:   -783  56   7 1229
1477479927.697:   -781  56   7 1229
1477479927.697:   -782  56   7 1229
1477479927.697:   -783  56   7 1229
1477479927.697:   -780  56   7 1229
1477479927.697:   -771  56   7 1229
1477479927.697:   -764  56   7 1229
1477479927.698:   -758  56   7 1229
1477479927.698:   -750  56   7 1229
1477479927.698:   -733  56   7 1229
1477479927.698:   -715  56   7 1229
1477479927.698:   -706  56   7 1229
1477479927.699:   -705  56   7 1229
1477479927.699:   -703  56   7 1229
1477479927.699:   -691  56   7 1229
1477479927.706:   -673  56   7 1229
1477479927.706:   -662  56   7 1229
1477479927.706:   -658  56   7 1229
1477479927.719:   -647  56   7 1229
1477479927.720:   -620  56   7 1229
1477479927.722:   -581  56   7 1229
1477479927.723:   -543  56   7 1229
1477479927.723:   -515  56   7 1229
1477479927.723:   -495  56   7 1229
1477479927.724:   -476  56   7 1229
1477479927.724:   -453  56   7 1229
1477479927.724:   -424  56   7 1229
1477479927.726:   -392  56   7 1229
1477479927.726:   -362  56   7 1229
1477479927.726:   -337  56   7 1229
1477479927.726:   -313  56   7 1229
1477479927.727:   -283  56   7 1229
1477479927.727:   -242  56   7 1229
1477479927.727:   -199  56   7 1229
1477479927.727:   -165  56   7 1229
1477479927.762:   -141  56   7 1229
1477479927.762:   -119  56   7 1229
1477479927.762:    -89  56   7 1229
1477479927.763:    -50  56   7 1229
1477479927.763:    -10  56   7 1229
1477479927.765:     30  56   7 1229
1477479927.765:     71  56   7 1229
1477479927.766:    118  56   7 1229
1477479927.766:    166  56   7 1229
1477479927.767:    209  56   7 1229
1477479927.769:    243  56   7 1229
1477479927.771:    273  56   7 1229
1477479927.771:    304  56   7 1229
1477479927.772:    333  56   7 1229
1477479927.773:    358  56   7 1229
1477479927.774:    376  56   7 1229
1477479927.775:    393  56   7 1229
1477479927.790:    413  56   7 1229
1477479927.790:    438  56   7 1229
1477479927.790:    463  56   7 1229
1477479927.790:    476  56   7 1229
1477479927.791:    475  56   7 1229
1477479927.791:    470  56   7 1229
1477479927.792:    470  56   7 1229
1477479927.792:    476  56   7 1229
1477479927.792:    478  56   7 1229
1477479927.793:    471  56   7 1229
1477479927.793:    462  56   7 1229
1477479927.793:    462  56   7 1229
1477479927.794:    473  56   7 1229
1477479927.794:    482  56   7 1229
1477479927.794:    484  56   7 1229
1477479927.794:    483  56   7 1229
1477479927.795:    488  56   7 1229
1477479927.795:    499  56   7 1229
1477479927.799:    504  56   7 1229
1477479927.799:    496  56   7 1229
1477479927.808:    482  56   7 1229
1477479927.808:    474  56   7 1229
1477479927.809:    473  56   7 1229
1477479927.810:    467  56   7 1229
1477479927.811:    450  56   7 1229
1477479927.815:    428  56   7 1229
1477479927.826:    410  56   7 1229
1477479927.827:    398  56   7 1229
1477479927.827:    387  56   7 1229
1477479927.827:    375  56   7 1229
1477479927.828:    363  56   7 1229
1477479927.828:    357  56   7 1229
1477479927.829:    354  56   7 1229
1477479927.829:    349  56   7 1229
1477479927.830:    341  56   7 1229
1477479927.832:    330  56   7 1229
1477479927.836:    321  56   7 1229
1477479927.836:    314  56   7 1229
1477479927.837:    307  56   7 1229
1477479927.838:    297  56   7 1229
1477479927.840:    284  56   7 1229
1477479927.843:    274  56   7 1229
1477479927.845:    269  56   7 1229
1477479927.849:    265  56   7 1229
1477479927.850:    256  56   7 1229
1477479927.851:    243  56   7 1229
1477479927.852:    233  56   7 1229
1477479927.854:    231  56   7 1229
1477479927.857:    234  56   7 1229
1477479927.859:    232  56   7 1229
1477479927.872:    220  56   7 1229
1477479927.872:    207  56   7 1229
1477479927.872:    199  56   7 1229
1477479927.872:    198  56   7 1229
1477479927.872:    196  56   7 1229
1477479927.873:    189  56   7 1229
1477479927.874:    182  56   7 1229
1477479927.877:    176  56   7 1229
1477479927.877:    170  56   7 1229
1477479927.879:    164  56   7 1229
1477479927.890:    161  56   7 1229
1477479927.891:    168  56   7 1229
1477479927.891:    179  56   7 1229
1477479927.891:    180  56   7 1229
1477479927.892:    165  56   7 1229
1477479927.893:    145  56   7 1229
1477479927.893:    138  56   7 1229
1477479927.894:    145  56   7 1229
1477479927.895:    153  56   7 1229
1477479927.899:    149  56   7 1229
1477479927.906:    137  56   7 1229
1477479927.906:    130  56   7 1229
1477479927.912:    137  56   7 1229
1477479927.913:    151  56   7 1229
1477479927.913:    158  56   7 1229
1477479927.913:    156  56   7 1229
1477479927.914:    152  56   7 1229
1477479927.915:    151  56   7 1229
1477479927.915:    155  56   7 1229
1477479927.918:    163  56   7 1229
1477479927.918:    171  56   7 1229
1477479927.923:    174  56   7 1229
1477479927.923:    172  56   7 1229
1477479927.925:    169  56   7 1229
1477479927.926:    170  56   7 1229
1477479927.929:    176  56   7 1229
1477479927.932:    178  56   7 1229
1477479927.933:    172  56   7 1229
1477479927.937:    163  56   7 1229
1477479927.937:    161  56   7 1229
1477479927.942:    167  56   7 1229
1477479927.943:    174  56   7 1229
1477479927.954:    180  56   7 1229
1477479927.954:    185  56   7 1229
1477479927.955:    194  56   7 1229
1477479927.955:    202  56   7 1229
1477479927.956:    202  56   7 1229
1477479927.956:    194  56   7 1229
1477479927.957:    184  56   7 1229
1477479927.957:    182  56   7 1229
1477479927.958:    184  56   7 1229
1477479927.965:    181  56   7 1229
1477479927.965:    169  56   7 1229
1477479927.966:    159  56   7 1229
1477479927.991:    166  56   7 1229
1477479927.991:    190  56   7 1229
1477479927.991:    215  56   7 1229
1477479927.991:    225  56   7 1229
1477479927.992:    216  56   7 1229
1477479927.992:    204  56   7 1229
1477479927.992:    202  56   7 1229
1477479927.992:    211  56   7 1229
1477479927.993:    216  56   7 1229
1477479927.993:    207  56   7 1229
1477479927.993:    190  56   7 1229
1477479927.993:    181  56   7 1229
1477479927.993:    186  56   7 1229
1477479927.994:    198  56   7 1229
1477479927.995:    205  56   7 1229
1477479927.996:    203  56   7 1229
1477479927.997:    203  56   7 1229
1477479928.000:    211  56   7 1229
1477479928.004:    220  56   7 1229
1477479928.005:    221  56   7 1229
1477479928.007:    212  56   7 1229
1477479928.007:    204  56   7 1229
1477479928.011:    207  56   7 1229
1477479928.011:    220  56   7 1229
1477479928.025:    230  56   7 1229
1477479928.025:    225  56   7 1229
1477479928.026:    211  56   7 1229
1477479928.026:    205  56   7 1229
1477479928.027:    218  56   7 1229
1477479928.027:    244  56   7 1229
1477479928.027:    263  56   7 1229
1477479928.028:    255  56   7 1229
1477479928.033:    229  56   7 1229
1477479928.033:    205  56   7 1229
1477479928.046:    201  56   7 1229
1477479928.047:    213  56   7 1229
1477479928.047:    225  56   7 1229
1477479928.048:    225  56   7 1229
1477479928.049:    221  56   7 1229
1477479928.049:    224  56   7 1229
1477479928.050:    236  56   7 1229
1477479928.050:    247  56   7 1229
1477479928.051:    248  56   7 1229
1477479928.052:    240  56   7 1229
1477479928.055:    228  56   7 1229
1477479928.056:    217  56   7 1229
1477479928.060:    208  56   7 1229
1477479928.060:    205  56   7 1229
1477479928.062:    210  56   7 1229
1477479928.062:    221  56   7 1229
1477479928.067:    230  56   7 1229
1477479928.067:    231  56   7 1229
1477479928.082:    229  56   7 1229
1477479928.082:    231  56   7 1229
1477479928.083:    238  56   7 1229
1477479928.083:    242  56   7 1229
1477479928.083:    238  56   7 1229
1477479928.083:    229  56   7 1229
1477479928.083:    222  56   7 1229
1477479928.084:    215  56   7 1229
1477479928.087:    203  56   7 1229
1477479928.087:    180  56   7 1229
1477479928.093:    149  56   7 1229
1477479928.094:    121  56   7 1229
1477479928.095:    102  56   7 1229
1477479928.095:     92  56   7 1229
1477479928.096:     85  56   7 1229
1477479928.100:     75  56   7 1229
1477479928.110:     59  56   7 1229
1477479928.111:     41  56   7 1229
1477479928.111:     27  56   7 1229
1477479928.111:      9  56   7 1229
1477479928.111:    -29  56   7 1229
1477479928.112:   -101  56   7 1229
1477479928.114:   -198  56   7 1229
1477479928.114:   -289  56   7 1229
1477479928.116:   -350  56   7 1229
1477479928.143:   -377  56   7 1229
1477479928.145:   -393  56   7 1229
1477479928.145:   -413  56   7 1229
1477479928.148:   -429  56   7 1229
1477479928.148:   -427  56   7 1229
1477479928.159:   -402  56   7 1229
1477479928.159:   -367  56   7 1229
1477479928.160:   -340  56   7 1229
1477479928.160:   -322  56   7 1229
1477479928.160:   -309  56   7 1229
1477479928.160:   -297  56   7 1229
1477479928.161:   -294  56   7 1229
1477479928.161:   -304  56   7 1229
1477479928.161:   -313  56   7 1229
1477479928.161:   -301  56   7 1229
1477479928.161:   -256  56   7 1229
1477479928.161:   -187  56   7 1229
1477479928.161:   -117  56   7 1229
1477479928.162:    -62  56   7 1229
1477479928.162:    -18  56   7 1229
1477479928.162:     25  56   7 1229
1477479928.162:     74  56   7 1229
1477479928.162:    119  56   7 1229
1477479928.162:    144  56   7 1229
1477479928.167:    147  56   7 1229
1477479928.167:    142  56   7 1229
1477479928.169:    144  56   7 1229
1477479928.170:    156  56   7 1229
1477479928.175:    167  56   7 1229
1477479928.175:    170  56   7 1229
1477479928.182:    177  56   7 1229
1477479928.195:    202  56   7 1229
1477479928.196:    247  56   7 1229
1477479928.196:    297  56   7 1229
1477479928.196:    330  56   7 1229
1477479928.196:    343  56   7 1229
1477479928.196:    357  56   7 1229
1477479928.196:    396  56   7 1229
1477479928.196:    459  56   7 1229
1477479928.197:    525  56   7 1229
1477479928.197:    572  56   7 1229
1477479928.197:    594  56   7 1229
1477479928.202:    600  56   7 1229
1477479928.202:    603  56   7 1229
1477479928.203:    612  56   7 1229
1477479928.205:    625  56   7 1229
1477479928.207:    635  56   7 1229
1477479928.218:    633  56   7 1229
1477479928.218:    615  56   7 1229
1477479928.219:    586  56   7 1229
1477479928.219:    563  56   7 1229
1477479928.219:    561  56   7 1229
1477479928.219:    582  56   7 1229
1477479928.221:    612  56   7 1229
1477479928.224:    637  56   7 1229
1477479928.227:    644  56   7 1229
1477479928.229:    633  56   7 1229
1477479928.230:    612  56   7 1229
1477479928.235:    594  56   7 1229
1477479928.235:    588  56   7 1229
1477479928.236:    591  56   7 1229
1477479928.236:    591  56   7 1229
1477479928.242:    582  56   7 1229
1477479928.242:    568  56   7 1229
1477479928.243:    560  56   7 1229
1477479928.245:    559  56   7 1229
1477479928.248:    562  56   7 1229
1477479928.249:    567  56   7 1229
1477479928.249:    577  56   7 1229
1477479928.257:    588  56   7 1229
1477479928.257:    583  56   7 1229
1477479928.257:    554  56   7 1229
1477479928.258:    515  56   7 1229
1477479928.261:    497  56   7 1229
1477479928.262:    518  56   7 1229
1477479928.284:    560  56   7 1229
1477479928.284:    586  56   7 1229
1477479928.285:    576  56   7 1229
1477479928.285:    548  56   7 1229
1477479928.290:    527  56   7 1229
1477479928.290:    526  56   7 1229
1477479928.291:    536  56   7 1229
1477479928.291:    542  56   7 1229
1477479928.291:    534  56   7 1229
1477479928.291:    511  56   7 1229
1477479928.292:    481  56   7 1229
1477479928.292:    453  56   7 1229
1477479928.292:    440  56   7 1229
1477479928.292:    443  56   7 1229
1477479928.298:    444  56   7 1229
1477479928.299:    433  56   7 1229
1477479928.308:    425  56   7 1229
1477479928.308:    447  56   7 1229
1477479928.309:    497  56   7 1229
1477479928.309:    539  56   7 1229
1477479928.310:    558  60   8 1229
1477479928.311:    578  60   8 1229
1477479928.311:    634  60   8 1229
1477479928.311:    712  60   8 1229
1477479928.312:    759  60   8 1229
1477479928.317:    757  60   8 1229
1477479928.330:    752  60   8 1229
1477479928.330:    784  60   8 1229
1477479928.330:    820  60   8 1229
1477479928.330:    796  60   8 1229
1477479928.330:    739  60   8 1229
1477479928.330:    779  60   8 1229
1477479928.331:   1029  60   8 1229
1477479928.331:   1475  60   8 1229
1477479928.331:   2031  60   8 1229
1477479928.335:   2674  60   8 1229
1477479928.338:   3479  60   8 1229
1477479928.339:   4483  60   8 1229
1477479928.341:   5575  60   8 1229
1477479928.342:   6574  60   8 1229
1477479928.348:   7399  60   8 1229
1477479928.349:   8099  60   8 1229
1477479928.349:   8728  60   8 1229
1477479928.352:   9237  60   8 1229
1477479928.362:   9534  60   8 1229
1477479928.363:   9625  60   8 1229
1477479928.363:   9601  60   8 1229
1477479928.364:   9508  60   8 1229
1477479928.364:   9269  60   8 1229
1477479928.364:   8777  60   8 1229
1477479928.366:   8039  60   8 1229
1477479928.368:   7167  60   8 1229
1477479928.382:   6247  60   8 1229
1477479928.382:   5255  60   8 1229
1477479928.382:   4134  60   8 1229
1477479928.383:   2917  60   8 1229
1477479928.383:   1744  60   8 1229
1477479928.383:    743  60   8 1229
1477479928.384:    -43  60   8 1229
1477479928.384:   -643  60   8 1229
1477479928.386:  -1084  60   8 1229
1477479928.386:  -1370  60   8 1229
1477479928.387:  -1514  60   8 1229
1477479928.387:  -1566  60   8 1229
1477479928.393:  -1583  60   8 1229
1477479928.393:  -1598  60   8 1229
1477479928.395:  -1624  60   8 1229
1477479928.396:  -1673  60   8 1229
1477479928.397:  -1763  60   8 1229
1477479928.403:  -1891  60   8 1229
1477479928.403:  -2014  60   8 1229
1477479928.406:  -2083  60   8 1229
1477479928.407:  -2078  60   8 1229
1477479928.408:  -2030  60   8 1229
1477479928.410:  -1985  60   8 1229
1477479928.411:  -1965  60   8 1229
1477479928.414:  -1964  60   8 1229
1477479928.416:  -1973  60   8 1229
1477479928.429:  -1994  60   8 1229
1477479928.429:  -2029  60   8 1229
1477479928.430:  -2068  60   8 1229
1477479928.430:  -2085  60   8 1229
1477479928.431:  -2065  60   8 1229
1477479928.431:  -2014  60   8 1229
1477479928.432:  -1954  60   8 1229
1477479928.432:  -1902  60   8 1229
1477479928.433:  -1856  60   8 1229
1477479928.435:  -1809  60   8 1229
1477479928.440:  -1763  60   8 1229
1477479928.441:  -1730  60   8 1229
1477479928.449:  -1716  60   8 1229
1477479928.449:  -1707  60   8 1229
1477479928.450:  -1682  60   8 1229
1477479928.450:  -1639  60   8 1229
1477479928.450:  -1593  60   8 1229
1477479928.453:  -1559  60   8 1229
1477479928.453:  -1544  60   8 1229
1477479928.456:  -1537  60   8 1229
1477479928.460:  -1525  60   8 1229
1477479928.460:  -1498  60   8 1229
1477479928.463:  -1455  60   8 1229
1477479928.463:  -1409  60   8 1229
1477479928.467:  -1377  60   8 1229
1477479928.468:  -1374  60   8 1229
1477479928.471:  -1392  60   8 1229
1477479928.471:  -1405  60   8 1229
1477479928.473:  -1391  60   8 1229
1477479928.475:  -1357  60   8 1229
1477479928.476:  -1329  60   8 1229
1477479928.481:  -1320  60   8 1229
1477479928.487:  -1317  60   8 1229
1477479928.487:  -1295  60   8 1229
1477479928.487:  -1247  60   8 1229
1477479928.487:  -1192  60   8 1229
1477479928.489:  -1151  60   8 1229
1477479928.490:  -1121  60   8 1229
1477479928.494:  -1091  60   8 1229
1477479928.494:  -1059  60   8 1229
1477479928.496:  -1036  60   8 1229
1477479928.497:  -1032  60   8 1229
1477479928.499:  -1037  60   8 1229
1477479928.502:  -1034  60   8 1229
1477479928.504:  -1023  60   8 1229
1477479928.508:  -1014  60   8 1229
1477479928.520:  -1011  60   8 1229
