timestamp: ADC HeartRate4sAverage HeartRate30sAverage HRV8sAverage
1477482942.313:   -339  92  12  902
1477482942.313:    -99  92  12  902
1477482942.313:    135  92  12  902
1477482942.314:    126  92  12  902
1477482942.314:    -70  92  12  902
1477482942.314:   -178  92  12  902
1477482942.314:    -41  92  12  902
1477482942.314:    177  92  12  902
1477482942.315:    203  92  12  902
1477482942.319:     16  92  12  902
1477482942.319:   -130  92  12  902
1477482942.321:    -32  92  12  902
1477482942.323:    233  92  12  902
1477482942.325:    414  92  12  902
1477482942.339:    417  92  12  902
1477482942.339:    363  92  12  902
1477482942.339:    376  92  12  902
1477482942.339:    405  92  12  902
1477482942.339:    339  92  12  902
1477482942.340:    178  92  12  902
1477482942.340:     50  92  12  902
1477482942.340:     49  92  12  902
1477482942.341:    133  92  12  902
1477482942.347:    214  92  12  902
1477482942.347:    291  92  12  902
1477482942.348:    412  92  12  902
1477482942.358:    563  92  12  902
1477482942.500:    654  92  12  902
1477482942.501:    633  92  12  902
1477482942.501:    568  92  12  902
1477482942.502:    556  92  12  902
1477482942.502:    591  92  12  902
1477482942.503:    549  92  12  902
1477482942.503:    375  92  12  902
1477482942.503:    199  92  12  902
1477482942.503:    173  92  12  902
1477482942.504:    291  92  12  902
1477482942.504:    414  92  12  902
1477482942.504:    414  92  12  902
1477482942.504:    322  92  12  902
1477482942.504:    274  92  12  902
1477482942.505:    337  92  12  902
1477482942.505:    440  92  12  902
1477482942.505:    469  92  12  902
1477482942.516:    377  92  12  902
1477482942.516:    223  92  12  902
1477482942.516:     91  92  12  902
1477482942.516:     25  92  12  902
1477482942.517:     -7  92  12  902
1477482942.517:    -62  92  12  902
1477482942.517:   -155  92  12  902
1477482942.517:   -222  92  12  902
1477482942.517:   -181  92  12  902
1477482942.518:    -31  92  12  902
1477482942.518:    127  92  12  902
1477482942.518:    163  92  12  902
1477482942.518:     52  92  12  902
1477482942.518:    -93  92  12  902
1477482942.518:   -145  92  12  902
1477482942.519:    -88  92  12  902
1477482942.519:    -12  92  12  902
1477482942.519:     -8  92  12  902
1477482942.519:    -98  92  12  902
1477482942.519:   -222  92  12  902
1477482942.519:   -311  92  12  902
1477482942.519:   -314  92  12  902
1477482942.520:   -258  92  12  902
1477482942.520:   -231  92  12  902
1477482942.520:   -311  92  12  902
1477482942.520:   -474  92  12  902
1477482942.520:   -596  92  12  902
1477482942.520:   -577  92  12  902
1477482942.520:   -469  92  12  902
1477482942.521:   -425  92  12  902
1477482942.521:   -527  92  12  902
1477482942.521:   -649  92  12  902
1477482942.521:   -601  92  12  902
1477482942.521:   -382  92  12  902
1477482942.521:   -177  92  12  902
1477482942.521:   -157  92  12  902
1477482942.521:   -298  92  12  902
1477482942.522:   -419  92  12  902
1477482942.522:   -423  92  12  902
1477482942.522:   -388  92  12  902
1477482942.522:   -451  92  12  902
1477482942.522:   -605  92  12  902
1477482942.522:   -719  92  12  902
1477482942.522:   -696  92  12  902
1477482942.522:   -588  92  12  902
1477482942.523:   -523  92  12  902
1477482942.523:   -547  92  12  902
1477482942.523:   -571  92  12  902
1477482942.523:   -501  92  12  902
1477482942.523:   -347  92  12  902
1477482942.523:   -227  92  12  902
1477482942.523:   -225  92  12  902
1477482942.524:   -308  92  12  902
1477482942.524:   -372  92  12  902
1477482942.524:   -341  92  12  902
1477482942.524:   -246  92  12  902
1477482942.524:   -183  92  12  902
1477482942.524:   -152  92  12  902
1477482942.525:    -86  92  12  902
1477482942.525:     49  92  12  902
1477482942.537:    157  92  12  902
1477482942.537:     92  92  12  902
1477482942.537:   -148  92  12  902
1477482942.538:   -382  92  12  902
1477482942.538:   -410  92  12  902
1477482942.538:   -272  92  12  902
1477482942.539:   -206  92  12  902
1477482942.540:   -351  92  12  902
1477482942.541:   -559  92  12  902
1477482942.544:   -553  92  12  902
1477482942.545:   -256  92  12  902
1477482942.545:    110  92  12  902
1477482942.570:    291  92  12  902
1477482942.570:    261  92  12  902
1477482942.570:    187  92  12  902
1477482942.570:    194  92  12  902
1477482942.571:    232  92  12  902
1477482942.571:    203  92  12  902
1477482942.571:    117  92  12  902
1477482942.572:     76  92  12  902
1477482942.572:    131  92  12  902
1477482942.572:    229  92  12  902
1477482942.572:    283  92  12  902
1477482942.572:    259  92  12  902
1477482942.573:    181  92  12  902
1477482942.573:    103  92  12  902
1477482942.573:     65  92  12  902
1477482942.573:     76  92  12  902
1477482942.574:     91  92  12  902
1477482942.574:     35  92  12  902
1477482942.574:   -102  92  12  902
1477482942.574:   -237  92  12  902
1477482942.574:   -253  92  12  902
1477482942.575:   -136  92  12  902
1477482942.575:    -14  92  12  902
1477482942.575:     22  92  12  902
1477482942.575:      5  92  12  902
1477482942.576:     23  92  12  902
1477482942.577:     99  92  12  902
1477482942.580:    152  92  12  902
1477482942.584:    117  92  12  902
1477482942.585:     32  92  12  902
1477482942.586:      3  92  12  902
1477482942.587:     66  92  12  902
1477482942.589:    135  92  12  902
1477482942.591:    118  92  12  902
1477482942.594:     14  92  12  902
1477482942.598:    -71  92  12  902
1477482942.614:    -36  92  12  902
1477482942.614:     78  92  12  902
1477482942.614:    137  92  12  902
1477482942.614:     41  92  12  902
1477482942.614:   -141  92  12  902
1477482942.615:   -241  92  12  902
1477482942.615:   -166  92  12  902
1477482942.615:    -11  92  12  902
1477482942.615:     58  92  12  902
1477482942.616:      4  92  12  902
1477482942.616:    -35  92  12  902
1477482942.618:     56  92  12  902
1477482942.621:    200  92  12  902
1477482942.626:    212  92  12  902
1477482942.626:     81  92  12  902
1477482942.627:      6  92  12  902
1477482942.628:    152  92  12  902
1477482942.629:    424  92  12  902
1477482942.632:    565  92  12  902
1477482942.635:    477  92  12  902
1477482942.646:    340  92  12  902
1477482942.646:    372  92  12  902
1477482942.646:    567  92  12  902
1477482942.646:    741  92  12  902
1477482942.647:    779  92  12  902
1477482942.647:    744  92  12  902
1477482942.649:    714  92  12  902
1477482942.653:    644  92  12  902
1477482942.653:    476  92  12  902
1477482942.655:    295  92  12  902
1477482942.666:    274  92  12  902
1477482942.666:    448  92  12  902
1477482942.666:    637  92  12  902
1477482942.666:    639  92  12  902
1477482942.668:    493  92  12  902
1477482942.668:    436  92  12  902
1477482942.670:    598  92  12  902
1477482942.671:    846  92  12  902
1477482942.672:    970  92  12  902
1477482942.677:    915  92  12  902
1477482942.680:    838  92  12  902
1477482942.680:    867  92  12  902
1477482942.681:    940  92  12  902
1477482942.683:    898  92  12  902
1477482942.684:    731  92  12  902
1477482942.705:    613  92  12  902
1477482942.711:    688  92  12  902
1477482942.711:    879  92  12  902
1477482942.711:    935  92  12  902
1477482942.712:    692  92  12  902
1477482942.712:    285  92  12  902
1477482942.712:     47  92  12  902
1477482942.712:    170  92  12  902
1477482942.712:    525  92  12  902
1477482942.712:    778  92  12  902
1477482942.713:    731  92  12  902
1477482942.713:    508  92  12  902
1477482942.713:    386  92  12  902
1477482942.714:    504  92  12  902
1477482942.714:    742  92  12  902
1477482942.718:    871  92  12  902
1477482942.718:    772  92  12  902
1477482942.722:    509  92  12  902
1477482942.722:    231  92  12  902
1477482942.724:     60  92  12  902
1477482942.726:     29  92  12  902
1477482942.741:     83  92  12  902
1477482942.742:    120  92  12  902
1477482942.742:     69  92  12  902
1477482942.742:    -51  92  12  902
1477482942.743:   -118  92  12  902
1477482942.743:    -27  92  12  902
1477482942.743:    188  92  12  902
1477482942.743:    383  92  12  902
1477482942.745:    427  92  12  902
1477482942.745:    311  92  12  902
1477482942.746:    136  92  12  902
1477482942.749:      7  92  12  902
1477482942.750:    -39  92  12  902
1477482942.755:    -24  92  12  902
1477482942.755:     -2  92  12  902
1477482942.757:    -18  92  12  902
1477482942.760:    -70  92  12  902
1477482942.763:    -97  92  12  902
1477482942.764:    -37  92  12  902
1477482942.765:     95  92  12  902
1477482942.767:    206  92  12  902
1477482942.769:    225  92  12  902
1477482942.770:    180  92  12  902
1477482942.773:    180  92  12  902
1477482942.777:    253  92  12  902
1477482942.777:    307  92  12  902
1477482942.791:    295  92  12  902
1477482942.792:    261  92  12  902
1477482942.795:    295  92  12  902
1477482942.796:    411  92  12  902
1477482942.797:    514  92  12  902
1477482942.797:    508  92  12  902
1477482942.798:    413  92  12  902
1477482942.799:    318  92  12  902
1477482942.809:    278  92  12  902
1477482942.810:    265  92  12  902
1477482942.810:    258  92  12  902
1477482942.810:    242  92  12  902
1477482942.811:    186  92  12  902
1477482942.811:     72  92  12  902
1477482942.811:    -48  92  12  902
1477482942.812:    -67  92  12  902
1477482942.812:     71  92  12  902
1477482942.814:    266  92  12  902
1477482942.815:    360  92  12  902
1477482942.816:    327  92  12  902
1477482942.817:    329  92  12  902
1477482942.819:    510  92  12  902
1477482942.824:    786  92  12  902
1477482942.825:    915  92  12  902
1477482942.825:    781  92  12  902
1477482942.828:    518  92  12  902
1477482942.829:    349  92  12  902
1477482942.832:    346  92  12  902
1477482942.834:    391  92  12  902
1477482942.837:    346  92  12  902
1477482942.838:    220  92  12  902
1477482942.840:    133  92  12  902
1477482942.841:    193  92  12  902
1477482942.846:    427  92  12  902
1477482942.865:    779  92  12  902
1477482942.866:   1130  92  12  902
1477482942.868:   1347  92  12  902
1477482942.868:   1347  92  12  902
1477482942.869:   1213  92  12  902
1477482942.869:   1102  92  12  902
1477482942.869:   1058  92  12  902
1477482942.869:    947  92  12  902
1477482942.869:    600  92  12  902
1477482942.869:     37  92  12  902
1477482942.870:   -519  92  12  902
1477482942.870:   -873  92  12  902
1477482942.870:  -1029  92  12  902
1477482942.870:  -1144  92  12  902
1477482942.873:  -1268  92  12  902
1477482942.875:  -1272  92  12  902
1477482942.878:  -1036  92  12  902
1477482942.878:   -606  92  12  902
1477482942.880:   -171  92  12  902
1477482942.883:    119  92  12  902
1477482942.884:    293  92  12  902
1477482942.886:    472  92  12  902
1477482942.888:    692  92  12  902
1477482942.892:    860  92  12  902
1477482942.910:    862  92  12  902
1477482942.910:    702  92  12  902
1477482942.911:    490  92  12  902
1477482942.911:    347  92  12  902
1477482942.911:    297  92  12  902
1477482942.911:    293  92  12  902
1477482942.911:    310  92  12  902
1477482942.911:    375  92  12  902
1477482942.911:    491  92  12  902
1477482942.911:    585  92  12  902
1477482942.915:    570  92  12  902
1477482942.915:    463  92  12  902
1477482942.916:    385  92  12  902
1477482942.919:    436  92  12  902
1477482942.919:    552  92  12  902
1477482942.922:    575  92  12  902
1477482942.933:    454  92  12  902
1477482942.933:    339  92  12  902
1477482942.933:    406  92  12  902
1477482942.933:    674  92  12  902
1477482942.933:    960  92  12  902
1477482942.934:   1102  92  12  902
1477482942.935:   1089  92  12  902
1477482942.937:   1045  92  12  902
1477482942.942:   1049  92  12  902
1477482942.943:   1069  92  12  902
1477482942.945:   1034  92  12  902
1477482942.949:    926  92  12  902
1477482942.949:    774  92  12  902
1477482942.952:    620  92  12  902
1477482942.952:    498  92  12  902
1477482942.956:    442  92  12  902
1477482942.956:    471  92  12  902
1477482942.958:    555  92  12  902
1477482942.961:    634  92  12  902
1477482942.961:    665  92  12  902
1477482942.963:    663  92  12  902
1477482942.964:    696  92  12  902
1477482942.966:    796  92  12  902
1477482942.969:    906  92  12  902
1477482942.982:    901  92  12  902
1477482942.983:    678  92  12  902
1477482942.983:    305  92  12  902
1477482942.985:     11  92  12  902
1477482942.986:      2  92  12  902
1477482942.987:    253  92  12  902
1477482942.988:    505  92  12  902
1477482942.989:    541  92  12  902
1477482942.990:    436  92  12  902
1477482942.998:    485  92  12  902
1477482943.005:    839  92  12  902
1477482943.006:   1287  92  12  902
1477482943.006:   1456  92  12  902
1477482943.006:   1225  92  12  902
1477482943.006:    853  92  12  902
1477482943.007:    686  92  12  902
1477482943.007:    751  92  12  902
1477482943.007:    800  92  12  902
1477482943.007:    649  92  12  902
1477482943.008:    417  92  12  902
1477482943.008:    352  92  12  902
1477482943.017:    530  92  12  902
1477482943.017:    776  92  12  902
1477482943.017:    904  92  12  902
1477482943.019:    901  92  12  902
1477482943.019:    885  92  12  902
1477482943.021:    929  92  12  902
1477482943.024:   1022  92  12  902
1477482943.025:   1130  92  12  902
1477482943.030:   1216  92  12  902
1477482943.039:   1219  92  12  902
1477482943.039:   1093  92  12  902
1477482943.039:    907  92  12  902
1477482943.039:    827  92  12  902
1477482943.039:    940  92  12  902
1477482943.039:   1129  92  12  902
1477482943.042:   1209  92  12  902
1477482943.043:   1122  92  12  902
1477482943.048:   1006  92  12  902
1477482943.049:    986  92  12  902
1477482943.060:   1026  92  12  902
1477482943.060:   1040  92  12  902
1477482943.060:   1037  92  12  902
1477482943.060:   1098  92  12  902
1477482943.060:   1214  92  12  902
1477482943.060:   1267  92  12  902
1477482943.061:   1197  92  12  902
1477482943.064:   1130  87  11  970
1477482943.065:   1230  87  11  970
1477482943.066:   1475  87  11  970
1477482943.071:   1653  87  11  970
1477482943.071:   1628  87  11  970
1477482943.073:   1497  87  11  970
1477482943.074:   1442  87  11  970
1477482943.077:   1500  87  11  970
1477482943.080:   1550  87  11  970
1477482943.081:   1472  87  11  970
1477482943.086:   1301  87  11  970
1477482943.086:   1157  87  11  970
1477482943.087:   1113  87  11  970
1477482943.089:   1147  87  11  970
1477482943.090:   1217  87  11  970
1477482943.092:   1316  87  11  970
1477482943.093:   1455  87  11  970
1477482943.096:   1629  87  11  970
1477482943.097:   1825  87  11  970
1477482943.102:   2014  87  11  970
1477482943.102:   2152  87  11  970
1477482943.123:   2200  87  11  970
1477482943.124:   2157  87  11  970
1477482943.124:   2063  87  11  970
1477482943.124:   1956  87  11  970
1477482943.124:   1831  87  11  970
1477482943.124:   1656  87  11  970
1477482943.125:   1458  87  11  970
1477482943.125:   1330  87  11  970
1477482943.125:   1339  87  11  970
1477482943.125:   1422  87  11  970
1477482943.125:   1436  87  11  970
1477482943.126:   1334  87  11  970
1477482943.129:   1230  87  11  970
1477482943.130:   1265  87  11  970
1477482943.131:   1417  87  11  970
1477482943.134:   1504  87  11  970
1477482943.135:   1401  87  11  970
1477482943.140:   1212  87  11  970
1477482943.153:   1114  87  11  970
1477482943.154:   1144  87  11  970
1477482943.155:   1139  87  11  970
1477482943.155:    991  87  11  970
1477482943.156:    807  87  11  970
1477482943.157:    769  87  11  970
1477482943.157:    859  87  11  970
1477482943.158:    875  87  11  970
1477482943.159:    696  87  11  970
1477482943.159:    470  87  11  970
1477482943.159:    424  87  11  970
1477482943.162:    565  87  11  970
1477482943.163:    670  87  11  970
1477482943.166:    599  87  11  970
1477482943.169:    474  87  11  970
1477482943.169:    517  87  11  970
1477482943.172:    727  87  11  970
1477482943.172:    872  87  11  970
1477482943.175:    802  87  11  970
1477482943.180:    663  87  11  970
1477482943.191:    698  87  11  970
1477482943.192:    915  87  11  970
1477482943.192:   1043  87  11  970
1477482943.193:    865  87  11  970
1477482943.194:    517  87  11  970
1477482943.195:    357  87  11  970
1477482943.196:    557  87  11  970
1477482943.197:    917  87  11  970
1477482943.197:   1088  87  11  970
1477482943.198:    968  87  11  970
1477482943.209:    795  87  11  970
1477482943.209:    829  87  11  970
1477482943.210:   1044  87  11  970
1477482943.211:   1176  87  11  970
1477482943.212:   1049  87  11  970
1477482943.212:    766  87  11  970
1477482943.213:    561  87  11  970
1477482943.213:    529  87  11  970
1477482943.217:    548  87  11  970
1477482943.217:    493  87  11  970
1477482943.218:    426  87  11  970
1477482943.220:    506  87  11  970
1477482943.221:    768  87  11  970
1477482943.224:   1048  87  11  970
1477482943.225:   1158  87  11  970
1477482943.227:   1086  87  11  970
1477482943.230:    970  87  11  970
1477482943.233:    917  87  11  970
1477482943.234:    903  87  11  970
1477482943.239:    852  87  11  970
1477482943.239:    750  87  11  970
1477482943.240:    640  87  11  970
1477482943.241:    571  87  11  970
1477482943.242:    548  87  11  970
1477482943.249:    579  87  11  970
1477482943.249:    664  87  11  970
1477482943.265:    770  87  11  970
1477482943.265:    830  87  11  970
1477482943.266:    781  87  11  970
1477482943.266:    651  87  11  970
1477482943.267:    562  87  11  970
1477482943.267:    605  87  11  970
1477482943.268:    741  87  11  970
1477482943.269:    860  87  11  970
1477482943.291:    878  87  11  970
1477482943.294:    819  87  11  970
1477482943.295:    784  87  11  970
1477482943.299:    835  87  11  970
1477482943.300:    933  87  11  970
1477482943.300:    958  87  11  970
1477482943.301:    823  87  11  970
1477482943.301:    567  87  11  970
1477482943.301:    358  87  11  970
1477482943.301:    333  87  11  970
1477482943.302:    466  87  11  970
1477482943.302:    595  87  11  970
1477482943.302:    606  87  11  970
1477482943.303:    566  87  11  970
1477482943.303:    656  87  11  970
1477482943.303:    939  87  11  970
1477482943.305:   1271  87  11  970
1477482943.305:   1451  87  11  970
1477482943.305:   1431  87  11  970
1477482943.306:   1335  87  11  970
1477482943.307:   1294  87  11  970
1477482943.307:   1276  87  11  970
1477482943.309:   1173  87  11  970
1477482943.310:    962  87  11  970
1477482943.311:    752  87  11  970
1477482943.314:    642  87  11  970
1477482943.318:    613  87  11  970
1477482943.319:    606  87  11  970
1477482943.335:    616  87  11  970
1477482943.336:    709  87  11  970
1477482943.336:    885  87  11  970
1477482943.336:   1021  87  11  970
1477482943.337:   1012  87  11  970
1477482943.337:    926  87  11  970
1477482943.337:    952  87  11  970
1477482943.338:   1143  87  11  970
1477482943.338:   1283  87  11  970
1477482943.341:   1139  87  11  970
1477482943.341:    753  87  11  970
1477482943.342:    439  87  11  970
1477482943.354:    433  87  11  970
1477482943.354:    640  87  11  970
1477482943.355:    765  87  11  970
1477482943.355:    671  87  11  970
1477482943.355:    511  87  11  970
1477482943.356:    483  87  11  970
1477482943.357:    593  87  11  970
1477482943.359:    695  87  11  970
1477482943.359:    719  87  11  970
1477482943.363:    740  87  11  970
1477482943.469:    837  87  11  970
1477482943.469:    946  87  11  970
1477482943.469:    961  87  11  970
1477482943.469:    904  87  11  970
1477482943.469:    911  87  11  970
1477482943.469:   1029  87  11  970
1477482943.470:   1143  87  11  970
1477482943.470:   1121  87  11  970
1477482943.470:   1000  87  11  970
1477482943.470:    961  87  11  970
1477482943.470:   1113  87  11  970
1477482943.471:   1363  87  11  970
1477482943.471:   1515  87  11  970
1477482943.471:   1501  87  11  970
1477482943.471:   1424  87  11  970
1477482943.471:   1411  87  11  970
1477482943.472:   1462  87  11  970
1477482943.472:   1472  87  11  970
1477482943.472:   1389  87  11  970
1477482943.472:   1267  87  11  970
1477482943.472:   1190  87  11  970
1477482943.472:   1187  87  11  970
1477482943.472:   1219  87  11  970
1477482943.472:   1258  87  11  970
1477482943.473:   1319  87  11  970
1477482943.473:   1405  87  11  970
1477482943.473:   1463  87  11  970
1477482943.473:   1442  87  11  970
1477482943.473:   1356  87  11  970
1477482943.473:   1283  87  11  970
1477482943.473:   1266  87  11  970
1477482943.474:   1255  87  11  970
1477482943.474:   1171  87  11  970
1477482943.474:   1003  87  11  970
1477482943.474:    829  87  11  970
1477482943.474:    732  87  11  970
1477482943.475:    708  87  11  970
1477482943.475:    689  87  11  970
1477482943.475:    626  87  11  970
1477482943.475:    539  87  11  970
1477482943.475:    479  87  11  970
1477482943.476:    475  87  11  970
1477482943.476:    515  87  11  970
1477482943.476:    559  87  11  970
1477482943.476:    590  87  11  970
1477482943.476:    616  87  11  970
1477482943.476:    633  87  11  970
1477482943.476:    614  87  11  970
1477482943.477:    535  87  11  970
1477482943.477:    400  87  11  970
1477482943.477:    240  87  11  970
1477482943.477:     99  87  11  970
1477482943.477:     16  87  11  970
1477482943.477:     -2  87  11  970
1477482943.477:     32  87  11  970
1477482943.477:     95  87  11  970
1477482943.478:    173  87  11  970
1477482943.478:    268  87  11  970
1477482943.478:    370  87  11  970
1477482943.478:    459  87  11  970
1477482943.483:    499  87  11  970
1477482943.484:    474  87  11  970
1477482943.486:    419  87  11  970
1477482943.487:    389  87  11  970
1477482943.488:    403  87  11  970
1477482943.491:    438  87  11  970
1477482943.505:    455  87  11  970
1477482943.505:    447  87  11  970
1477482943.505:    450  87  11  970
1477482943.505:    514  87  11  970
1477482943.505:    639  87  11  970
1477482943.506:    773  87  11  970
1477482943.506:    828  87  11  970
1477482943.507:    737  87  11  970
1477482943.543:    526  87  11  970
1477482943.543:    324  87  11  970
1477482943.549:    233  87  11  970
1477482943.550:    221  87  11  970
1477482943.550:    171  87  11  970
1477482943.552:     43  87  11  970
1477482943.552:    -39  87  11  970
1477482943.553:     82  87  11  970
1477482943.553:    381  87  11  970
1477482943.554:    642  87  11  970
1477482943.555:    676  87  11  970
1477482943.555:    539  87  11  970
1477482943.556:    457  87  11  970
1477482943.557:    551  87  11  970
1477482943.569:    711  87  11  970
1477482943.569:    748  87  11  970
1477482943.569:    627  87  11  970
1477482943.570:    498  87  11  970
1477482943.570:    500  87  11  970
1477482943.570:    605  87  11  970
1477482943.570:    672  87  11  970
1477482943.571:    614  87  11  970
1477482943.571:    472  87  11  970
1477482943.571:    349  87  11  970
1477482943.572:    297  87  11  970
1477482943.572:    304  87  11  970
1477482943.572:    344  87  11  970
1477482943.572:    420  87  11  970
1477482943.573:    558  87  11  970
1477482943.573:    755  87  11  970
1477482943.573:    971  87  11  970
1477482943.574:   1184  87  11  970
1477482943.574:   1400  87  11  970
1477482943.574:   1645  87  11  970
1477482943.578:   1915  87  11  970
1477482943.579:   2164  87  11  970
1477482943.581:   2321  87  11  970
1477482943.583:   2338  87  11  970
1477482943.588:   2172  87  11  970
1477482943.589:   1821  87  11  970
1477482943.600:   1316  87  11  970
1477482943.600:    731  87  11  970
1477482943.601:    188  87  11  970
1477482943.602:   -244  87  11  970
1477482943.603:   -603  87  11  970
1477482943.603:   -941  87  11  970
1477482943.604:  -1238  87  11  970
1477482943.604:  -1379  87  11  970
1477482943.605:  -1274  87  11  970
1477482943.606:   -964  87  11  970
1477482943.607:   -581  87  11  970
1477482943.609:   -225  87  11  970
1477482943.610:     84  87  11  970
1477482943.612:    340  87  11  970
1477482943.615:    481  87  11  970
1477482943.619:    470  87  11  970
1477482943.619:    394  87  11  970
1477482943.621:    400  87  11  970
1477482943.622:    529  87  11  970
1477482943.623:    646  87  11  970
1477482943.632:    569  87  11  970
1477482943.632:    301  87  11  970
1477482943.635:     41  87  11  970
1477482943.635:     17  87  11  970
1477482943.635:    259  87  11  970
1477482943.636:    591  87  11  970
1477482943.637:    803  87  11  970
1477482943.640:    810  87  11  970
1477482943.642:    700  87  11  970
1477482943.647:    638  87  11  970
1477482943.648:    733  87  11  970
1477482943.649:    929  87  11  970
1477482943.660:   1056  87  11  970
1477482943.660:    992  87  11  970
1477482943.661:    763  87  11  970
1477482943.661:    524  87  11  970
1477482943.661:    394  87  11  970
1477482943.661:    360  87  11  970
1477482943.662:    377  87  11  970
1477482943.664:    454  87  11  970
1477482943.665:    629  87  11  970
1477482943.667:    826  87  11  970
1477482943.670:    878  87  11  970
1477482943.675:    747  87  11  970
1477482943.675:    622  87  11  970
1477482943.676:    741  87  11  970
1477482943.677:   1083  87  11  970
1477482943.679:   1344  87  11  970
1477482943.681:   1282  87  11  970
1477482943.683:    969  87  11  970
1477482943.695:    711  87  11  970
1477482943.695:    704  87  11  970
1477482943.695:    858  87  11  970
1477482943.695:    944  87  11  970
1477482943.696:    852  87  11  970
1477482943.696:    655  87  11  970
1477482943.697:    528  87  11  970
1477482943.701:    582  87  11  970
1477482943.702:    787  87  11  970
1477482943.703:    985  87  11  970
1477482943.707:   1016  87  11  970
1477482943.707:    881  87  11  970
1477482943.719:    758  87  11  970
1477482943.719:    820  87  11  970
1477482943.719:   1045  87  11  970
1477482943.719:   1201  87  11  970
1477482943.719:   1129  87  11  970
1477482943.719:    914  87  11  970
1477482943.720:    766  87  11  970
1477482943.725:    774  87  11  970
1477482943.725:    832  87  11  970
1477482943.729:    821  87  11  970
1477482943.729:    752  87  11  970
1477482943.732:    724  87  11  970
1477482943.733:    775  87  11  970
1477482943.734:    848  87  11  970
1477482943.736:    912  87  11  970
1477482943.738:    979  87  11  970
1477482943.743:   1043  87  11  970
1477482943.743:   1054  87  11  970
1477482943.745:    995  87  11  970
1477482943.746:    929  87  11  970
1477482943.767:    922  87  11  970
1477482943.767:    949  87  11  970
1477482943.767:    915  87  11  970
1477482943.767:    792  87  11  970
1477482943.768:    685  87  11  970
1477482943.768:    716  87  11  970
1477482943.768:    872  87  11  970
1477482943.769:   1016  87  11  970
1477482943.769:   1046  87  11  970
1477482943.769:    978  87  11  970
1477482943.771:    887  87  11  970
1477482943.771:    809  87  11  970
1477482943.772:    735  87  11  970
1477482943.774:    651  87  11  970
1477482943.775:    593  87  11  970
1477482943.777:    618  87  11  970
1477482943.788:    714  87  11  970
1477482943.788:    809  87  11  970
1477482943.789:    875  87  11  970
1477482943.789:    972  87  11  970
1477482943.789:   1188  87  11  970
1477482943.789:   1515  87  11  970
1477482943.794:   1772  87  11  970
1477482943.794:   1773  87  11  970
1477482943.798:   1520  87  11  970
1477482943.800:   1227  87  11  970
1477482943.800:   1123  87  11  970
1477482943.802:   1218  87  11  970
1477482943.803:   1317  87  11  931
1477482943.805:   1253  87  11  931
1477482943.808:   1031  87  11  931
1477482943.812:    819  87  11  931
1477482943.812:    778  87  11  931
1477482943.814:    929  87  11  931
1477482943.827:   1158  87  11  931
1477482943.827:   1323  87  11  931
1477482943.829:   1340  87  11  931
1477482943.829:   1229  87  11  931
1477482943.830:   1124  87  11  931
1477482943.830:   1166  87  11  931
1477482943.830:   1344  87  11  931
1477482943.833:   1487  87  11  931
1477482943.833:   1450  87  11  931
1477482943.834:   1276  87  11  931
1477482943.835:   1162  87  11  931
1477482943.839:   1247  87  11  931
1477482943.845:   1443  87  11  931
1477482943.846:   1535  87  11  931
1477482943.846:   1424  87  11  931
1477482943.847:   1211  87  11  931
1477482943.847:   1069  87  11  931
1477482943.849:   1055  87  11  931
1477482943.857:   1051  87  11  931
1477482943.857:    926  87  11  931
1477482943.858:    700  87  11  931
1477482943.859:    526  87  11  931
1477482943.859:    529  87  11  931
1477482943.861:    676  87  11  931
1477482943.863:    784  87  11  931
1477482943.867:    737  87  11  931
1477482943.868:    611  87  11  931
1477482943.870:    588  87  11  931
1477482943.872:    740  87  11  931
1477482943.872:    904  87  11  931
1477482943.875:    859  87  11  931
1477482943.878:    600  87  11  931
1477482943.881:    350  87  11  931
1477482943.883:    307  87  11  931
1477482943.883:    396  87  11  931
1477482943.883:    366  87  11  931
1477482943.899:    120  87  11  931
1477482943.900:   -166  87  11  931
1477482943.901:   -255  87  11  931
1477482943.902:   -133  87  11  931
1477482943.902:     -5  87  11  931
1477482943.903:    -41  87  11  931
1477482943.903:   -187  87  11  931
1477482943.903:   -262  87  11  931
1477482943.904:   -182  87  11  931
1477482943.905:    -31  87  11  931
1477482943.910:     61  87  11  931
1477482943.911:     58  87  11  931
1477482943.921:     29  87  11  931
1477482943.921:     39  87  11  931
1477482943.921:     87  87  11  931
1477482943.921:     95  87  11  931
1477482943.921:      1  87  11  931
1477482943.922:   -156  87  11  931
1477482943.922:   -272  87  11  931
1477482943.924:   -262  87  11  931
1477482943.926:   -170  87  11  931
1477482943.926:   -147  87  11  931
1477482943.929:   -259  87  11  931
1477482943.933:   -355  87  11  931
1477482943.944:   -224  87  11  931
1477482943.944:    130  87  11  931
1477482943.946:    426  87  11  931
1477482943.947:    380  87  11  931
1477482943.947:     51  87  11  931
1477482943.948:   -208  87  11  931
1477482943.949:   -133  87  11  931
1477482943.950:    128  87  11  931
1477482943.950:    205  87  11  931
1477482943.952:    -46  87  11  931
1477482943.953:   -384  87  11  931
1477482943.954:   -504  87  11  931
1477482943.956:   -370  87  11  931
1477482943.959:   -190  87  11  931
1477482943.973:   -144  87  11  931
1477482943.973:   -214  87  11  931
1477482943.973:   -288  87  11  931
1477482943.973:   -320  87  11  931
1477482943.973:   -302  87  11  931
1477482943.973:   -186  87  11  931
1477482943.974:     56  87  11  931
1477482943.977:    298  87  11  931
1477482943.977:    361  87  11  931
1477482943.979:    208  87  11  931
1477482943.979:     33  87  11  931
1477482943.984:     54  87  11  931
1477482943.985:    265  87  11  931
1477482943.986:    436  87  11  931
1477482943.990:    379  87  11  931
1477482943.991:    154  87  11  931
1477482943.999:      0  87  11  931
1477482943.999:     61  87  11  931
1477482943.999:    263  87  11  931
1477482944.000:    422  87  11  931
1477482944.000:    425  87  11  931
1477482944.005:    306  87  11  931
1477482944.005:    183  87  11  931
1477482944.006:    144  87  11  931
1477482944.008:    199  87  11  931
1477482944.008:    277  87  11  931
1477482944.018:    295  87  11  931
1477482944.018:    201  87  11  931
1477482944.018:     11  87  11  931
1477482944.018:   -200  87  11  931
1477482944.020:   -316  87  11  931
1477482944.022:   -247  87  11  931
1477482944.023:      0  87  11  931
1477482944.026:    287  87  11  931
1477482944.028:    422  87  11  931
1477482944.033:    347  87  11  931
1477482944.034:    195  87  11  931
1477482944.034:    193  87  11  931
1477482944.036:    421  87  11  931
1477482944.037:    725  87  11  931
1477482944.039:    874  87  11  931
1477482944.042:    784  87  11  931
1477482944.046:    566  87  11  931
1477482944.046:    390  87  11  931
1477482944.048:    342  87  11  931
1477482944.049:    357  87  11  931
1477482944.050:    319  87  11  931
1477482944.053:    167  87  11  931
1477482944.069:    -81  87  11  931
1477482944.070:   -322  87  11  931
1477482944.071:   -423  87  11  931
1477482944.071:   -323  87  11  931
1477482944.071:    -93  87  11  931
1477482944.072:    111  87  11  931
1477482944.072:    208  87  11  931
1477482944.074:    228  87  11  931
1477482944.088:    253  87  11  931
1477482944.088:    315  87  11  931
1477482944.088:    352  87  11  931
1477482944.088:    308  87  11  931
1477482944.088:    189  87  11  931
1477482944.088:     63  87  11  931
1477482944.089:      3  87  11  931
1477482944.089:     42  87  11  931
1477482944.089:    154  87  11  931
1477482944.090:    245  87  11  931
1477482944.093:    243  87  11  931
1477482944.094:    157  87  11  931
1477482944.094:    105  87  11  931
1477482944.096:    218  87  11  931
1477482944.101:    467  87  11  931
1477482944.102:    638  87  11  931
1477482944.103:    539  87  11  931
1477482944.104:    241  87  11  931
1477482944.173:     42  87  11  931
1477482944.173:    110  87  11  931
1477482944.174:    298  87  11  931
1477482944.174:    317  87  11  931
1477482944.174:    100  87  11  931
1477482944.174:    -90  87  11  931
1477482944.174:     34  87  11  931
1477482944.175:    397  87  11  931
1477482944.175:    659  87  11  931
1477482944.175:    613  87  11  931
1477482944.175:    404  87  11  931
1477482944.175:    322  87  11  931
1477482944.176:    462  87  11  931
1477482944.176:    626  87  11  931
1477482944.176:    598  87  11  931
1477482944.176:    411  87  11  931
1477482944.176:    270  87  11  931
1477482944.177:    283  87  11  931
1477482944.177:    369  87  11  931
1477482944.177:    410  87  11  931
1477482944.177:    402  87  11  931
1477482944.177:    434  87  11  931
1477482944.178:    507  87  11  931
1477482944.178:    529  87  11  931
1477482944.178:    444  87  11  931
1477482944.178:    329  87  11  931
1477482944.178:    307  87  11  931
1477482944.179:    407  87  11  931
1477482944.179:    524  87  11  931
1477482944.179:    530  87  11  931
1477482944.179:    421  87  11  931
1477482944.179:    289  87  11  931
1477482944.180:    216  87  11  931
1477482944.180:    192  87  11  931
1477482944.180:    146  87  11  931
1477482944.180:     27  87  11  931
1477482944.180:   -128  87  11  931
1477482944.180:   -230  87  11  931
1477482944.181:   -227  87  11  931
1477482944.184:   -168  87  11  931
1477482944.184:   -152  87  11  931
1477482944.188:   -214  87  11  931
1477482944.189:   -276  87  11  931
1477482944.191:   -236  87  11  931
1477482944.205:    -81  87  11  931
1477482944.205:     60  87  11  931
1477482944.206:     47  87  11  931
1477482944.206:   -110  87  11  931
1477482944.206:   -274  87  11  931
1477482944.206:   -350  87  11  931
1477482944.206:   -364  87  11  931
1477482944.206:   -397  87  11  931
1477482944.208:   -477  87  11  931
1477482944.210:   -532  87  11  931
1477482944.211:   -497  87  11  931
1477482944.216:   -411  87  11  931
1477482944.218:   -361  87  11  931
1477482944.219:   -354  87  11  931
1477482944.219:   -327  87  11  931
1477482944.222:   -243  87  11  931
1477482944.224:   -159  87  11  931
1477482944.225:   -157  87  11  931
1477482944.229:   -262  87  11  931
1477482944.230:   -419  87  11  931
1477482944.235:   -559  87  11  931
1477482944.236:   -649  87  11  931
1477482944.255:   -674  87  11  931
1477482944.255:   -639  87  11  931
1477482944.255:   -597  87  11  931
1477482944.255:   -616  87  11  931
1477482944.256:   -702  87  11  931
1477482944.256:   -760  87  11  931
1477482944.256:   -684  87  11  931
1477482944.256:   -506  87  11  931
1477482944.256:   -374  87  11  931
1477482944.256:   -400  87  11  931
1477482944.257:   -526  87  11  931
1477482944.258:   -584  87  11  931
1477482944.259:   -510  87  11  931
1477482944.262:   -413  87  11  931
1477482944.262:   -434  87  11  931
1477482944.266:   -573  87  11  931
1477482944.277:   -697  87  11  931
1477482944.279:   -683  87  11  931
1477482944.279:   -554  87  11  931
1477482944.280:   -439  87  11  931
1477482944.281:   -414  87  11  931
1477482944.283:   -448  87  11  931
1477482944.284:   -452  87  11  931
1477482944.286:   -385  87  11  931
1477482944.286:   -300  87  11  931
1477482944.286:   -289  87  11  931
1477482944.292:   -371  87  11  931
1477482944.292:   -449  87  11  931
1477482944.293:   -412  87  11  931
1477482944.294:   -258  87  11  931
1477482944.294:   -138  87  11  931
1477482944.298:   -185  87  11  931
1477482944.299:   -341  87  11  931
1477482944.300:   -387  87  11  931
1477482944.301:   -179  87  11  931
1477482944.305:    170  87  11  931
1477482944.305:    403  87  11  931
1477482944.312:    411  87  11  931
1477482944.313:    327  87  11  931
1477482944.313:    365  87  11  931
1477482944.317:    537  87  11  931
1477482944.318:    680  87  11  931
1477482944.330:    667  87  11  931
1477482944.330:    556  87  11  931
1477482944.331:    505  87  11  931
1477482944.331:    556  87  11  931
1477482944.331:    577  87  11  931
1477482944.331:    419  87  11  931
1477482944.331:     74  87  11  931
1477482944.335:   -314  87  11  931
1477482944.335:   -592  87  11  931
1477482944.335:   -740  87  11  931
1477482944.340:   -871  87  11  931
1477482944.340:  -1130  87  11  931
1477482944.357:  -1546  87  11  931
1477482944.357:  -1930  87  11  931
1477482944.359:  -2021  87  11  931
1477482944.359:  -1753  87  11  931
1477482944.359:  -1330  87  11  931
1477482944.360:  -1051  87  11  931
1477482944.360:   -999  87  11  931
1477482944.360:   -977  87  11  931
1477482944.361:   -752  87  11  931
1477482944.361:   -336  87  11  931
1477482944.361:     47  87  11  931
1477482944.363:    234  87  11  931
1477482944.367:    259  87  11  931
1477482944.368:    252  87  11  931
1477482944.370:    246  87  11  931
1477482944.371:    184  87  11  931
1477482944.373:     31  87  11  931
1477482944.376:   -155  87  11  931
1477482944.377:   -282  87  11  931
1477482944.381:   -321  87  11  931
1477482944.382:   -311  87  11  931
1477482944.388:   -274  87  11  931
1477482944.389:   -206  87  11  931
1477482944.390:   -109  87  11  931
1477482944.406:    -27  87  11  931
1477482944.407:     -3  87  11  931
1477482944.409:    -41  87  11  931
1477482944.409:    -94  87  11  931
1477482944.410:   -100  87  11  931
1477482944.411:    -43  87  11  931
1477482944.411:     18  87  11  931
1477482944.412:     -1  87  11  931
1477482944.412:   -102  87  11  931
1477482944.413:   -193  87  11  931
1477482944.414:   -169  87  11  931
1477482944.414:    -23  87  11  931
1477482944.426:    124  87  11  931
1477482944.426:    153  87  11  931
1477482944.426:     51  87  11  931
1477482944.426:    -87  87  11  931
1477482944.426:   -163  87  11  931
1477482944.427:   -165  87  11  931
1477482944.427:   -129  87  11  931
1477482944.427:   -100  87  11  931
1477482944.427:   -100  87  11  931
1477482944.430:    -98  87  11  931
1477482944.431:    -30  87  11  931
1477482944.435:    138  87  11  931
1477482944.436:    349  87  11  931
1477482944.440:    478  87  11  931
1477482944.441:    472  87  11  931
1477482944.442:    420  87  11  931
1477482944.443:    431  87  11  931
1477482944.451:    485  87  11  931
1477482944.453:    434  87  11  931
1477482944.455:    198  87  11  931
1477482944.457:    -86  87  11  931
1477482944.458:   -194  87  11  931
1477482944.459:    -93  87  11  931
1477482944.459:     28  87  11  931
1477482944.463:     -9  87  11  931
1477482944.464:   -142  87  11  931
1477482944.465:   -154  87  11  931
1477482944.466:     47  87  11  931
1477482944.468:    289  87  11  931
1477482944.469:    337  87  11  931
1477482944.470:    173  87  11  931
1477482944.473:     14  87  11  931
1477482944.490:     58  87  11  931
1477482944.490:    250  87  11  931
1477482944.491:    359  87  11  931
1477482944.492:    258  87  11  931
1477482944.492:     40  87  11  931
1477482944.492:   -100  87  11  931
1477482944.493:   -106  87  11  931
1477482944.493:    -74  87  11  931
1477482944.494:   -103  87  11  931
1477482944.494:   -173  87  11  931
1477482944.496:   -203  87  11  931
1477482944.497:   -168  87  11  931
1477482944.498:   -127  87  11  931
1477482944.500:   -103  87  11  931
1477482944.531:    -24  87  11  931
1477482944.533:    171  87  11  931
1477482944.534:    392  87  11  931
1477482944.534:    471  87  11  931
1477482944.536:    346  87  11  931
1477482944.537:    159  87  11  931
1477482944.572:    102  87  11  931
1477482944.573:    189  87  11  931
1477482944.575:    241  87  11  931
1477482944.575:    126  87  11  931
1477482944.576:    -89  87  11  931
1477482944.576:   -201  87  11  931
1477482944.577:   -114  87  11  931
1477482944.577:     69  87  11  931
1477482944.579:    163  87  11  933
1477482944.580:    120  87  11  933
1477482944.581:     44  87  11  933
1477482944.581:     84  87  11  933
1477482944.581:    276  87  11  933
1477482944.582:    523  87  11  933
1477482944.582:    674  87  11  933
1477482944.583:    663  87  11  933
1477482944.583:    560  87  11  933
1477482944.584:    503  87  11  933
1477482944.584:    574  87  11  933
1477482944.585:    707  87  11  933
1477482944.585:    751  87  11  933
1477482944.586:    637  87  11  933
1477482944.586:    450  87  11  933
1477482944.587:    354  87  11  933
1477482944.587:    403  87  11  933
1477482944.588:    508  87  11  933
1477482944.588:    568  87  11  933
1477482944.589:    576  87  11  933
1477482944.590:    581  87  11  933
1477482944.590:    597  87  11  933
1477482944.591:    582  87  11  933
1477482944.591:    524  87  11  933
1477482944.606:    492  87  11  933
1477482944.607:    540  87  11  933
1477482944.609:    600  87  11  933
1477482944.610:    558  87  11  933
1477482944.610:    406  87  11  933
1477482944.611:    255  87  11  933
1477482944.611:    204  87  11  933
1477482944.612:    237  87  11  933
1477482944.612:    226  87  11  933
1477482944.613:    120  87  11  933
1477482944.613:      8  87  11  933
1477482944.614:      9  87  11  933
1477482944.626:    120  87  11  933
1477482944.626:    226  87  11  933
1477482944.626:    226  87  11  933
1477482944.626:    142  87  11  933
1477482944.626:     78  87  11  933
1477482944.626:     89  87  11  933
1477482944.626:    108  87  11  933
1477482944.627:     18  87  11  933
1477482944.627:   -208  87  11  933
1477482944.627:   -451  87  11  933
1477482944.627:   -543  87  11  933
1477482944.627:   -425  87  11  933
1477482944.627:   -222  87  11  933
1477482944.627:   -135  87  11  933
1477482944.628:   -235  87  11  933
1477482944.632:   -391  87  11  933
1477482944.632:   -396  87  11  933
1477482944.634:   -216  87  11  933
1477482944.636:    -32  87  11  933
1477482944.637:    -56  87  11  933
1477482944.640:   -293  87  11  933
1477482944.641:   -547  87  11  933
1477482944.652:   -646  87  11  933
1477482944.653:   -627  87  11  933
1477482944.653:   -653  87  11  933
1477482944.653:   -798  87  11  933
1477482944.653:   -948  87  11  933
1477482944.654:   -960  87  11  933
1477482944.655:   -814  87  11  933
1477482944.661:   -632  87  11  933
1477482944.662:   -509  87  11  933
1477482944.664:   -444  87  11  933
1477482944.665:   -378  87  11  933
1477482944.669:   -276  87  11  933
1477482944.670:   -157  87  11  933
1477482944.671:    -74  87  11  933
1477482944.672:    -54  87  11  933
1477482944.677:   -101  87  11  933
1477482944.679:   -187  87  11  933
1477482944.679:   -256  87  11  933
1477482944.679:   -266  87  11  933
1477482944.684:   -241  87  11  933
1477482944.699:   -248  87  11  933
1477482944.699:   -319  87  11  933
1477482944.699:   -388  87  11  933
1477482944.699:   -367  87  11  933
1477482944.699:   -250  87  11  933
1477482944.700:   -143  87  11  933
1477482944.700:   -133  87  11  933
1477482944.701:   -178  87  11  933
1477482944.702:   -179  87  11  933
1477482944.702:   -124  87  11  933
1477482944.706:   -113  87  11  933
1477482944.709:   -232  87  11  933
1477482944.718:   -425  87  11  933
1477482944.719:   -515  87  11  933
1477482944.719:   -395  87  11  933
1477482944.719:   -156  87  11  933
1477482944.719:      6  87  11  933
1477482944.719:     -9  87  11  933
1477482944.719:   -121  87  11  933
1477482944.720:   -171  87  11  933
1477482944.722:   -106  87  11  933
1477482944.723:    -26  87  11  933
1477482944.728:    -68  87  11  933
1477482944.729:   -255  87  11  933
1477482944.730:   -464  87  11  933
1477482944.735:   -567  87  11  933
1477482944.736:   -558  87  11  933
1477482944.736:   -526  87  11  933
1477482944.738:   -532  87  11  933
1477482944.742:   -520  87  11  933
1477482944.742:   -388  87  11  933
1477482944.744:   -156  87  11  933
1477482944.760:     22  87  11  933
1477482944.761:     18  87  11  933
1477482944.762:    -98  87  11  933
1477482944.762:   -167  87  11  933
1477482944.763:   -158  87  11  933
1477482944.763:   -230  87  11  933
1477482944.764:   -480  87  11  933
1477482944.765:   -752  87  11  933
1477482944.765:   -783  87  11  933
1477482944.767:   -537  87  11  933
1477482944.779:   -270  87  11  933
1477482944.779:   -223  87  11  933
1477482944.779:   -317  87  11  933
1477482944.780:   -287  87  11  933
1477482944.780:    -62  87  11  933
1477482944.780:    134  87  11  933
1477482944.781:     98  87  11  933
1477482944.783:    -83  87  11  933
1477482944.783:   -149  87  11  933
1477482944.784:    -42  87  11  933
1477482944.785:     30  87  11  933
1477482944.788:   -107  87  11  933
1477482944.794:   -322  87  11  933
1477482944.794:   -357  87  11  933
1477482944.795:   -174  87  11  933
1477482944.795:    -21  87  11  933
1477482944.798:   -116  87  11  933
1477482944.801:   -376  87  11  933
1477482944.805:   -522  87  11  933
1477482944.807:   -411  87  11  933
1477482944.808:   -199  87  11  933
1477482944.808:   -135  87  11  933
1477482944.809:   -281  87  11  933
1477482944.811:   -468  87  11  933
1477482944.823:   -524  87  11  933
1477482944.825:   -465  87  11  933
1477482944.825:   -421  87  11  933
1477482944.826:   -459  87  11  933
1477482944.827:   -496  87  11  933
1477482944.827:   -443  87  11  933
1477482944.828:   -319  87  11  933
1477482944.830:   -250  87  11  933
1477482944.830:   -299  87  11  933
1477482944.834:   -387  87  11  933
1477482944.834:   -381  87  11  933
1477482944.835:   -253  87  11  933
1477482944.837:    -86  87  11  933
1477482944.838:     25  87  11  933
1477482944.849:     45  87  11  933
1477482944.851:    -24  87  11  933
1477482944.852:   -174  87  11  933
1477482944.853:   -371  87  11  933
1477482944.853:   -522  87  11  933
1477482944.854:   -563  87  11  933
1477482944.855:   -522  87  11  933
1477482944.857:   -528  87  11  933
1477482944.875:   -627  87  11  933
1477482944.875:   -709  87  11  933
1477482944.875:   -624  87  11  933
1477482944.875:   -375  87  11  933
1477482944.875:   -129  87  11  933
1477482944.876:    -25  87  11  933
1477482944.876:    -49  87  11  933
1477482944.876:    -72  87  11  933
1477482944.877:    -47  87  11  933
1477482944.877:    -48  87  11  933
1477482944.877:   -141  87  11  933
1477482944.877:   -275  87  11  933
1477482944.878:   -354  87  11  933
1477482944.883:   -372  87  11  933
1477482944.947:   -400  87  11  933
1477482944.948:   -455  87  11  933
1477482944.948:   -455  87  11  933
1477482944.948:   -343  87  11  933
1477482944.948:   -205  87  11  933
1477482944.949:   -196  87  11  933
1477482944.949:   -350  87  11  933
1477482944.949:   -518  87  11  933
1477482944.949:   -544  87  11  933
1477482944.950:   -462  87  11  933
1477482944.951:   -440  87  11  933
1477482944.951:   -586  87  11  933
1477482944.952:   -814  87  11  933
1477482944.953:   -960  87  11  933
1477482944.953:   -968  87  11  933
1477482944.953:   -931  87  11  933
1477482944.964:   -957  87  11  933
1477482944.964:  -1068  87  11  933
1477482944.965:  -1223  87  11  933
1477482944.965:  -1381  87  11  933
1477482944.965:  -1491  87  11  933
1477482944.965:  -1509  87  11  933
1477482944.965:  -1427  87  11  933
1477482944.965:  -1323  87  11  933
1477482944.965:  -1315  87  11  933
1477482944.967:  -1438  87  11  933
1477482944.967:  -1575  87  11  933
1477482944.967:  -1567  87  11  933
1477482944.968:  -1407  87  11  933
1477482944.968:  -1247  87  11  933
1477482944.968:  -1234  87  11  933
1477482944.968:  -1333  87  11  933
1477482944.968:  -1391  87  11  933
1477482944.968:  -1322  87  11  933
1477482944.968:  -1195  87  11  933
1477482944.969:  -1155  87  11  933
1477482944.969:  -1249  87  11  933
1477482944.969:  -1365  87  11  933
1477482944.969:  -1354  87  11  933
1477482944.969:  -1184  87  11  933
1477482944.969:   -991  87  11  933
1477482944.969:   -942  87  11  933
1477482944.970:  -1077  87  11  933
1477482944.971:  -1271  87  11  933
1477482944.971:  -1342  87  11  933
1477482944.972:  -1232  87  11  933
1477482944.975:  -1069  87  11  933
1477482944.975:  -1025  87  11  933
1477482944.978:  -1122  87  11  933
1477482944.980:  -1230  87  11  933
1477482944.984:  -1203  87  11  933
1477482944.985:  -1047  87  11  933
1477482944.986:   -896  87  11  933
1477482944.988:   -858  87  11  933
1477482944.989:   -908  87  11  933
1477482944.992:   -942  87  11  933
1477482944.994:   -912  87  11  933
1477482944.998:   -856  87  11  933
1477482944.999:   -820  87  11  933
1477482945.000:   -807  87  11  933
1477482945.002:   -808  87  11  933
1477482945.003:   -815  87  11  933
1477482945.005:   -817  87  11  933
1477482945.009:   -803  87  11  933
1477482945.025:   -780  87  11  933
1477482945.025:   -777  87  11  933
1477482945.026:   -815  87  11  933
1477482945.027:   -854  87  11  933
1477482945.027:   -846  87  11  933
1477482945.028:   -827  87  11  933
1477482945.028:   -907  87  11  933
1477482945.029:  -1132  87  11  933
1477482945.029:  -1392  87  11  933
1477482945.030:  -1499  87  11  933
1477482945.030:  -1389  87  11  933
1477482945.031:  -1190  87  11  933
1477482945.033:  -1085  87  11  933
1477482945.035:  -1119  87  11  933
1477482945.043:  -1181  87  11  933
1477482945.043:  -1137  87  11  933
1477482945.044:   -961  87  11  933
1477482945.045:   -731  87  11  933
1477482945.045:   -534  87  11  933
1477482945.047:   -416  87  11  933
1477482945.050:   -359  87  11  933
1477482945.057:   -295  87  11  933
1477482945.059:   -131  87  11  933
1477482945.060:    155  87  11  933
1477482945.061:    471  87  11  933
1477482945.063:    641  87  11  933
1477482945.064:    546  87  11  933
1477482945.064:    231  87  11  933
1477482945.069:   -149  87  11  933
1477482945.069:   -499  87  11  933
1477482945.070:   -842  87  11  933
1477482945.070:  -1232  87  11  933
1477482945.071:  -1633  87  11  933
1477482945.074:  -1951  87  11  933
1477482945.076:  -2142  87  11  933
1477482945.081:  -2248  87  11  933
1477482945.099:  -2300  87  11  933
1477482945.099:  -2238  87  11  933
1477482945.099:  -1972  87  11  933
1477482945.099:  -1551  87  11  933
1477482945.100:  -1172  87  11  933
1477482945.100:  -1000  87  11  933
1477482945.100:   -991  87  11  933
1477482945.100:   -957  87  11  933
1477482945.100:   -777  87  11  933
1477482945.100:   -519  87  11  933
1477482945.100:   -340  87  11  933
1477482945.102:   -314  87  11  933
1477482945.104:   -363  87  11  933
1477482945.108:   -383  87  11  933
1477482945.109:   -362  87  11  933
1477482945.110:   -353  87  11  933
1477482945.135:   -387  87  11  933
1477482945.135:   -419  87  11  933
1477482945.135:   -377  87  11  933
1477482945.135:   -249  87  11  933
1477482945.135:   -111  87  11  933
1477482945.136:    -70  87  11  933
1477482945.136:   -143  87  11  933
1477482945.136:   -230  87  11  933
1477482945.136:   -210  87  11  933
1477482945.136:    -75  87  11  933
1477482945.136:     38  87  11  933
1477482945.136:    -15  87  11  933
1477482945.137:   -223  87  11  933
1477482945.137:   -409  87  11  933
1477482945.139:   -423  87  11  933
1477482945.139:   -302  87  11  933
1477482945.142:   -208  87  11  933
1477482945.145:   -237  87  11  933
1477482945.156:   -327  87  11  933
1477482945.156:   -338  87  11  933
1477482945.156:   -205  87  11  933
1477482945.156:      4  87  11  933
1477482945.157:    172  87  11  933
1477482945.157:    240  87  11  933
1477482945.158:    240  87  11  933
1477482945.163:    246  87  11  933
1477482945.163:    299  87  11  933
1477482945.165:    380  87  11  933
1477482945.167:    406  87  11  933
1477482945.170:    325  87  11  933
1477482945.170:    157  87  11  933
1477482945.173:     -8  87  11  933
1477482945.177:    -99  87  11  933
1477482945.178:   -118  87  11  933
1477482945.185:   -134  87  11  933
1477482945.185:   -181  87  11  933
1477482945.186:   -211  87  11  933
1477482945.187:   -145  87  11  933
1477482945.217:     13  87  11  933
1477482945.218:    167  87  11  933
1477482945.218:    225  87  11  933
1477482945.219:    206  87  11  933
1477482945.219:    208  87  11  933
1477482945.220:    287  87  11  933
1477482945.220:    389  87  11  933
1477482945.220:    426  87  11  933
1477482945.221:    395  87  11  933
1477482945.221:    383  87  11  933
1477482945.221:    446  87  11  933
1477482945.221:    515  87  11  933
1477482945.222:    480  87  11  933
1477482945.222:    338  87  11  933
1477482945.223:    195  87  11  933
1477482945.223:    133  87  11  933
1477482945.223:    128  87  11  933
1477482945.223:    102  87  11  933
1477482945.223:     80  87  11  933
1477482945.223:    177  87  11  933
1477482945.229:    443  87  11  933
1477482945.230:    745  87  11  933
1477482945.239:    889  87  11  933
1477482945.240:    833  87  11  933
1477482945.240:    732  87  11  933
1477482945.240:    733  87  11  933
1477482945.241:    801  87  11  933
1477482945.241:    772  87  11  933
1477482945.241:    568  87  11  933
1477482945.246:    319  87  11  933
1477482945.246:    232  87  11  933
1477482945.247:    361  87  11  933
1477482945.251:    541  87  11  933
1477482945.251:    584  87  11  933
1477482945.253:    463  87  11  933
1477482945.255:    344  87  11  933
1477482945.259:    399  87  11  933
1477482945.260:    602  87  11  933
1477482945.273:    738  87  11  933
1477482945.273:    652  87  11  933
1477482945.274:    445  87  11  933
1477482945.274:    362  87  11  933
1477482945.274:    527  87  11  933
1477482945.275:    778  76  10  739
1477482945.275:    836  76  10  739
1477482945.276:    627  76  10  739
1477482945.276:    397  76  10  739
1477482945.278:    444  76  10  739
1477482945.281:    787  76  10  739
1477482945.283:   1137  76  10  739
1477482945.284:   1194  76  10  739
1477482945.287:    950  76  10  739
1477482945.288:    664  76  10  739
1477482945.293:    584  76  10  739
1477482945.293:    715  76  10  739
1477482945.297:    836  76  10  739
1477482945.297:    779  76  10  739
1477482945.301:    592  76  10  739
1477482945.316:    466  76  10  739
1477482945.317:    507  76  10  739
1477482945.318:    640  76  10  739
1477482945.318:    700  76  10  739
1477482945.319:    634  76  10  739
1477482945.319:    556  76  10  739
1477482945.320:    609  76  10  739
1477482945.320:    778  76  10  739
1477482945.321:    900  76  10  739
1477482945.321:    862  76  10  739
1477482945.321:    722  76  10  739
1477482945.322:    657  76  10  739
1477482945.325:    734  76  10  739
1477482945.328:    829  76  10  739
1477482945.328:    772  76  10  739
1477482945.330:    543  76  10  739
1477482945.331:    307  76  10  739
1477482945.333:    201  76  10  739
1477482945.338:    201  76  10  739
1477482945.339:    194  76  10  739
1477482945.352:    147  76  10  739
1477482945.353:    137  76  10  739
1477482945.353:    203  76  10  739
1477482945.354:    253  76  10  739
1477482945.355:    166  76  10  739
1477482945.356:    -23  76  10  739
1477482945.356:   -110  76  10  739
1477482945.357:     34  76  10  739
1477482945.360:    271  76  10  739
1477482945.361:    345  76  10  739
1477482945.372:    171  76  10  739
1477482945.372:    -63  76  10  739
1477482945.373:   -125  76  10  739
1477482945.373:      8  76  10  739
1477482945.374:    158  76  10  739
1477482945.374:    152  76  10  739
1477482945.375:     13  76  10  739
1477482945.375:   -121  76  10  739
1477482945.375:   -168  76  10  739
1477482945.376:   -164  76  10  739
1477482945.380:   -201  76  10  739
1477482945.381:   -335  76  10  739
1477482945.383:   -541  76  10  739
1477482945.385:   -734  76  10  739
1477482945.389:   -824  76  10  739
1477482945.389:   -765  76  10  739
1477482945.390:   -609  76  10  739
1477482945.393:   -434  76  10  739
1477482945.394:   -310  76  10  739
1477482945.397:   -235  76  10  739
1477482945.398:   -183  76  10  739
1477482945.402:   -132  76  10  739
1477482945.415:    -72  76  10  739
1477482945.415:    -14  76  10  739
1477482945.415:      3  76  10  739
1477482945.415:    -78  76  10  739
1477482945.415:   -272  76  10  739
1477482945.416:   -509  76  10  739
1477482945.418:   -682  76  10  739
1477482945.418:   -746  76  10  739
1477482945.418:   -725  76  10  739
1477482945.420:   -677  76  10  739
1477482945.421:   -615  76  10  739
1477482945.424:   -499  76  10  739
1477482945.425:   -307  76  10  739
1477482945.429:    -66  76  10  739
1477482945.439:    150  76  10  739
1477482945.440:    277  76  10  739
1477482945.440:    297  76  10  739
1477482945.440:    251  76  10  739
1477482945.440:    207  76  10  739
1477482945.440:    185  76  10  739
1477482945.443:    123  76  10  739
1477482945.443:    -45  76  10  739
1477482945.445:   -262  76  10  739
1477482945.446:   -382  76  10  739
1477482945.449:   -326  76  10  739
1477482945.453:   -185  76  10  739
1477482945.454:   -108  76  10  739
1477482945.457:   -123  76  10  739
1477482945.458:   -129  76  10  739
1477482945.459:    -68  76  10  739
1477482945.461:    -22  76  10  739
1477482945.463:    -56  76  10  739
1477482945.465:    -90  76  10  739
1477482945.468:     23  76  10  739
1477482945.471:    257  76  10  739
1477482945.471:    398  76  10  739
1477482945.472:    304  76  10  739
1477482945.474:    108  76  10  739
1477482945.476:     89  76  10  739
1477482945.479:    333  76  10  739
1477482945.490:    627  76  10  739
1477482945.491:    702  76  10  739
1477482945.492:    536  76  10  739
1477482945.493:    320  76  10  739
1477482945.493:    216  76  10  739
1477482945.494:    203  76  10  739
1477482945.496:    179  76  10  739
1477482945.496:    127  76  10  739
1477482945.498:    140  76  10  739
1477482945.498:    252  76  10  739
1477482945.500:    356  76  10  739
1477482945.501:    323  76  10  739
1477482945.504:    177  76  10  739
1477482945.507:     90  76  10  739
1477482945.507:    186  76  10  739
1477482945.515:    390  76  10  739
1477482945.534:    505  76  10  739
1477482945.534:    427  76  10  739
1477482945.534:    261  76  10  739
1477482945.535:    198  76  10  739
1477482945.553:    306  76  10  739
1477482945.554:    457  76  10  739
1477482945.555:    491  76  10  739
1477482945.555:    383  76  10  739
1477482945.557:    246  76  10  739
1477482945.558:    192  76  10  739
1477482945.560:    228  76  10  739
1477482945.560:    266  76  10  739
1477482945.560:    252  76  10  739
1477482945.561:    245  76  10  739
1477482945.561:    353  76  10  739
1477482945.561:    590  76  10  739
1477482945.561:    843  76  10  739
1477482945.562:    953  76  10  739
1477482945.562:    876  76  10  739
1477482945.562:    711  76  10  739
1477482945.563:    598  76  10  739
1477482945.563:    560  76  10  739
1477482945.585:    491  76  10  739
1477482945.640:    297  76  10  739
1477482945.640:     38  76  10  739
1477482945.640:   -117  76  10  739
1477482945.641:    -89  76  10  739
1477482945.641:     34  76  10  739
1477482945.641:    118  76  10  739
1477482945.641:    131  76  10  739
1477482945.644:    161  76  10  739
1477482945.644:    270  76  10  739
1477482945.645:    411  76  10  739
1477482945.645:    513  76  10  739
1477482945.645:    579  76  10  739
1477482945.645:    663  76  10  739
1477482945.646:    769  76  10  739
1477482945.646:    844  76  10  739
1477482945.657:    854  76  10  739
1477482945.658:    851  76  10  739
1477482945.658:    889  76  10  739
1477482945.658:    944  76  10  739
1477482945.658:    946  76  10  739
1477482945.658:    891  76  10  739
1477482945.658:    854  76  10  739
1477482945.659:    885  76  10  739
1477482945.659:    938  76  10  739
1477482945.659:    924  76  10  739
1477482945.659:    847  76  10  739
1477482945.659:    789  76  10  739
1477482945.659:    794  76  10  739
1477482945.659:    810  76  10  739
1477482945.660:    764  76  10  739
1477482945.660:    668  76  10  739
1477482945.660:    587  76  10  739
1477482945.660:    582  76  10  739
1477482945.660:    654  76  10  739
1477482945.660:    774  76  10  739
1477482945.660:    885  76  10  739
1477482945.660:    914  76  10  739
1477482945.661:    832  76  10  739
1477482945.661:    692  76  10  739
1477482945.661:    606  76  10  739
1477482945.661:    643  76  10  739
1477482945.661:    710  76  10  739
1477482945.661:    635  76  10  739
1477482945.661:    369  76  10  739
1477482945.661:     61  76  10  739
1477482945.662:    -88  76  10  739
1477482945.662:    -13  76  10  739
1477482945.662:    177  76  10  739
1477482945.662:    334  76  10  739
1477482945.662:    381  76  10  739
1477482945.662:    334  76  10  739
1477482945.662:    270  76  10  739
1477482945.662:    277  76  10  739
1477482945.663:    367  76  10  739
1477482945.663:    446  76  10  739
1477482945.665:    358  76  10  739
1477482945.667:     53  76  10  739
1477482945.669:   -319  76  10  739
1477482945.672:   -535  76  10  739
1477482945.673:   -527  76  10  739
1477482945.678:   -448  76  10  739
1477482945.680:   -471  76  10  739
1477482945.681:   -588  76  10  739
1477482945.682:   -644  76  10  739
1477482945.683:   -537  76  10  739
1477482945.688:   -335  76  10  739
1477482945.689:   -175  76  10  739
1477482945.703:   -113  76  10  739
1477482945.703:   -111  76  10  739
1477482945.703:   -138  76  10  739
1477482945.703:   -176  76  10  739
1477482945.703:   -198  76  10  739
1477482945.704:   -180  76  10  739
1477482945.704:   -154  76  10  739
1477482945.705:   -176  76  10  739
1477482945.705:   -239  76  10  739
1477482945.706:   -263  76  10  739
1477482945.708:   -204  76  10  739
1477482945.711:   -131  76  10  739
1477482945.712:   -128  76  10  739
1477482945.714:   -178  76  10  739
1477482945.718:   -166  76  10  739
1477482945.718:    -70  76  10  739
1477482945.720:    -19  76  10  739
1477482945.722:   -124  76  10  739
1477482945.723:   -292  76  10  739
1477482945.725:   -327  76  10  739
1477482945.732:   -180  76  10  739
1477482945.733:    -28  76  10  739
1477482945.762:    -38  76  10  739
1477482945.763:   -152  76  10  739
1477482945.763:   -184  76  10  739
1477482945.764:    -66  76  10  739
1477482945.766:     77  76  10  739
1477482945.767:     97  76  10  739
1477482945.768:      4  76  10  739
1477482945.768:   -111  76  10  739
1477482945.769:   -210  76  10  739
1477482945.769:   -312  76  10  739
1477482945.769:   -411  76  10  739
1477482945.769:   -480  76  10  739
1477482945.770:   -528  76  10  739
1477482945.770:   -616  76  10  739
1477482945.770:   -733  76  10  739
1477482945.771:   -761  76  10  739
1477482945.771:   -608  76  10  739
1477482945.771:   -366  76  10  739
1477482945.771:   -241  76  10  739
1477482945.772:   -313  76  10  739
1477482945.772:   -440  76  10  739
1477482945.772:   -452  76  10  739
1477482945.776:   -369  76  10  739
1477482945.777:   -354  76  10  739
1477482945.780:   -473  76  10  739
1477482945.781:   -604  76  10  739
1477482945.789:   -596  76  10  739
1477482945.789:   -446  76  10  739
1477482945.801:   -283  76  10  739
1477482945.801:   -174  76  10  739
1477482945.801:    -50  76  10  739
1477482945.802:    165  76  10  739
1477482945.802:    438  76  10  739
1477482945.802:    650  76  10  739
1477482945.802:    726  76  10  739
1477482945.802:    689  76  10  739
1477482945.805:    618  76  10  739
1477482945.805:    516  76  10  739
1477482945.806:    308  76  10  739
1477482945.809:    -40  76  10  739
1477482945.820:   -468  76  10  739
1477482945.820:   -868  76  10  739
1477482945.820:  -1171  76  10  739
1477482945.821:  -1404  76  10  739
1477482945.821:  -1606  76  10  739
1477482945.821:  -1743  76  10  739
1477482945.822:  -1726  76  10  739
1477482945.851:  -1521  76  10  739
1477482945.860:  -1241  76  10  739
1477482945.861:  -1047  76  10  739
1477482945.862:   -976  76  10  739
1477482945.862:   -893  76  10  739
1477482945.863:   -673  76  10  739
1477482945.863:   -364  76  10  739
1477482945.864:   -152  76  10  739
1477482945.864:   -162  76  10  739
1477482945.864:   -299  76  10  739
1477482945.865:   -355  76  10  739
1477482945.865:   -233  76  10  739
1477482945.867:    -28  76  10  739
1477482945.879:    107  76  10  739
1477482945.879:    116  76  10  739
1477482945.880:     61  76  10  739
1477482945.880:     42  76  10  739
1477482945.881:     81  76  10  739
1477482945.882:    119  76  10  739
1477482945.883:     93  76  10  739
1477482945.883:      7  76  10  739
1477482945.884:    -81  76  10  739
1477482945.884:   -121  76  10  739
1477482945.885:   -116  76  10  739
1477482945.886:   -102  76  10  739
1477482945.886:    -74  76  10  739
1477482945.886:      4  76  10  739
1477482945.887:    150  76  10  739
1477482945.887:    289  76  10  739
1477482945.887:    316  76  10  739
1477482945.888:    233  76  10  739
1477482945.889:    198  76  10  739
1477482945.889:    329  76  10  739
1477482945.889:    554  76  10  739
1477482945.890:    660  76  10  739
1477482945.902:    530  76  10  739
1477482945.903:    305  76  10  739
1477482945.903:    233  76  10  739
1477482945.903:    385  76  10  739
1477482945.904:    554  76  10  739
1477482945.905:    496  76  10  739
1477482945.905:    210  76  10  739
1477482945.906:    -46  76  10  739
1477482945.909:    -39  76  10  739
1477482945.911:    188  76  10  739
1477482945.913:    381  76  10  739
1477482945.915:    361  76  10  739
1477482945.921:    241  76  10  739
1477482945.922:    273  76  10  739
1477482945.923:    544  76  10  739
1477482945.926:    870  76  10  739
1477482945.927:    998  76  10  739
1477482945.929:    867  76  10  739
1477482945.945:    638  76  10  739
1477482945.945:    497  76  10  739
1477482945.945:    479  76  10  739
1477482945.945:    460  76  10  739
1477482945.945:    329  76  10  739
1477482945.945:    111  76  10  739
1477482945.946:    -58  76  10  739
1477482945.946:    -69  76  10  739
1477482945.946:     71  76  10  739
1477482945.946:    241  76  10  739
1477482945.948:    313  76  10  739
1477482945.952:    252  76  10  739
1477482945.953:    136  76  10  739
1477482945.956:     63  76  10  739
1477482945.956:     73  76  10  739
1477482945.958:    111  76  10  739
1477482945.965:    118  76  10  739
1477482945.965:     92  76  10  739
1477482945.980:     94  76  10  739
1477482945.981:    169  76  10  739
1477482945.981:    282  76  10  739
1477482945.982:    353  76  10  739
1477482945.982:    335  76  10  739
1477482945.982:    269  76  10  739
1477482945.982:    244  76  10  739
1477482945.982:    302  76  10  739
1477482945.983:    396  76  10  739
1477482945.983:    439  76  10  739
1477482945.984:    404  76  10  739
1477482945.985:    351  76  10  739
1477482945.989:    361  76  10  739
1477482945.990:    434  76  10  739
1477482945.991:    511  76  10  739
1477482945.992:    539  76  10  739
1477482945.997:    529  76  10  739
1477482945.997:    513  76  10  739
1477482946.001:    488  76  10  739
1477482946.001:    422  76  10  739
1477482946.015:    333  76  10  739
1477482946.015:    308  76  10  739
1477482946.016:    414  82  10  739
1477482946.016:    602  82  10  739
1477482946.016:    747  82  10  739
1477482946.017:    788  82  10  739
1477482946.017:    800  82  10  739
1477482946.019:    925  82  10  739
1477482946.020:   1199  82  10  739
1477482946.021:   1499  82  10  739
1477482946.023:   1659  82  10  739
1477482946.025:   1598  82  10  739
1477482946.026:   1359  82  10  739
1477482946.030:   1058  82  10  739
1477482946.031:    809  82  10  739
1477482946.034:    669  82  10  739
1477482946.035:    638  82  10  739
1477482946.039:    657  82  10  739
1477482946.053:    650  82  10  739
1477482946.053:    597  82  10  739
1477482946.054:    559  82  10  739
1477482946.054:    625  82  10  739
1477482946.054:    836  82  10  739
1477482946.054:   1121  82  10  739
1477482946.054:   1336  82  10  739
1477482946.054:   1353  82  10  739
1477482946.054:   1152  82  10  739
1477482946.055:    860  82  10  739
1477482946.060:    668  82  10  739
1477482946.061:    679  82  10  739
1477482946.062:    816  82  10  739
1477482946.064:    878  82  10  739
1477482946.077:    729  82  10  739
1477482946.078:    467  82  10  739
1477482946.078:    330  82  10  739
1477482946.078:    450  82  10  739
1477482946.078:    710  82  10  739
1477482946.078:    893  82  10  739
1477482946.080:    899  82  10  739
1477482946.080:    802  82  10  739
1477482946.081:    681  82  10  739
1477482946.084:    497  82  10  739
1477482946.089:    224  82  10  739
1477482946.089:    -14  82  10  739
1477482946.090:    -59  82  10  739
1477482946.092:     83  82  10  739
1477482946.092:    185  82  10  739
1477482946.099:     43  82  10  739
1477482946.100:   -271  82  10  739
1477482946.101:   -471  82  10  739
1477482946.103:   -384  82  10  739
1477482946.103:   -121  82  10  739
1477482946.107:     34  82  10  739
1477482946.107:    -67  82  10  739
1477482946.109:   -260  82  10  739
1477482946.114:   -225  82  10  739
1477482946.127:    177  82  10  739
1477482946.128:    746  82  10  739
1477482946.130:   1117  82  10  739
1477482946.130:   1098  82  10  739
1477482946.130:    873  82  10  739
1477482946.130:    764  82  10  739
1477482946.131:    847  82  10  739
1477482946.131:    855  82  10  739
1477482946.131:    522  82  10  739
1477482946.132:    -50  82  10  739
1477482946.133:   -472  82  10  739
1477482946.134:   -509  82  10  739
1477482946.139:   -323  82  10  739
1477482946.140:   -255  82  10  739
1477482946.142:   -402  82  10  739
1477482946.144:   -538  82  10  739
1477482946.155:   -417  82  10  739
1477482946.156:    -70  82  10  739
1477482946.156:    249  82  10  739
1477482946.157:    352  82  10  739
1477482946.157:    241  82  10  739
1477482946.159:     48  82  10  739
1477482946.159:    -81  82  10  739
1477482946.160:    -75  82  10  739
1477482946.162:     46  82  10  739
1477482946.162:    176  82  10  739
1477482946.164:    188  82  10  739
1477482946.167:     78  82  10  739
1477482946.167:     13  82  10  739
1477482946.170:    147  82  10  739
1477482946.171:    433  82  10  739
1477482946.175:    648  82  10  739
1477482946.176:    629  82  10  739
1477482946.177:    428  82  10  739
1477482946.179:    233  82  10  739
1477482946.184:    173  82  10  739
1477482946.204:    242  82  10  739
1477482946.204:    350  82  10  739
1477482946.205:    413  82  10  739
1477482946.205:    392  82  10  739
1477482946.206:    306  82  10  739
1477482946.206:    202  82  10  739
1477482946.206:    150  82  10  739
1477482946.206:    177  82  10  739
1477482946.206:    237  82  10  739
1477482946.207:    275  82  10  739
1477482946.207:    278  82  10  739
1477482946.209:    275  82  10  739
1477482946.209:    292  82  10  739
1477482946.212:    329  82  10  739
1477482946.213:    389  82  10  739
1477482946.214:    470  82  10  739
1477482946.226:    545  82  10  739
1477482946.226:    578  82  10  739
1477482946.227:    562  82  10  739
1477482946.227:    540  82  10  739
1477482946.228:    556  82  10  739
1477482946.228:    590  82  10  739
1477482946.229:    588  82  10  739
1477482946.230:    546  82  10  739
1477482946.230:    513  82  10  739
1477482946.236:    497  82  10  739
1477482946.237:    439  82  10  739
1477482946.238:    324  82  10  739
1477482946.249:    244  82  10  739
1477482946.249:    316  82  10  739
1477482946.250:    510  82  10  739
1477482946.250:    645  82  10  739
1477482946.250:    607  82  10  739
1477482946.251:    497  82  10  739
1477482946.254:    503  82  10  739
1477482946.254:    638  82  10  739
1477482946.255:    709  82  10  739
1477482946.256:    585  82  10  739
1477482946.258:    382  82  10  739
1477482946.264:    327  82  10  739
1477482946.265:    463  82  10  739
1477482946.269:    588  82  10  739
1477482946.270:    497  82  10  739
1477482946.271:    252  82  10  739
1477482946.271:    123  82  10  739
1477482946.272:    286  82  10  739
1477482946.278:    624  82  10  739
1477482946.279:    863  82  10  739
1477482946.281:    854  82  10  739
1477482946.281:    708  82  10  739
1477482946.284:    645  82  10  739
1477482946.284:    768  82  10  739
1477482946.285:    981  82  10  739
1477482946.288:   1088  82  10  739
1477482946.291:    978  82  10  739
1477482946.296:    712  82  10  739
1477482946.303:    455  82  10  739
1477482946.303:    334  82  10  739
1477482946.303:    357  82  10  739
1477482946.303:    437  82  10  739
1477482946.304:    496  82  10  739
1477482946.304:    525  82  10  739
1477482946.308:    547  82  10  739
1477482946.309:    562  82  10  739
1477482946.310:    558  82  10  739
1477482946.311:    546  82  10  739
1477482946.315:    564  82  10  739
1477482946.315:    636  82  10  739
1477482946.339:    721  82  10  739
1477482946.422:    742  82  10  739
1477482946.422:    681  82  10  739
1477482946.422:    627  82  10  739
1477482946.422:    681  82  10  739
1477482946.423:    846  82  10  739
1477482946.423:   1005  82  10  739
1477482946.423:   1046  82  10  739
1477482946.423:    967  82  10  739
1477482946.423:    855  82  10  739
1477482946.423:    780  82  10  739
1477482946.423:    704  82  10  739
1477482946.424:    562  82  10  739
1477482946.424:    368  82  10  739
1477482946.424:    236  82  10  739
1477482946.424:    266  82  10  739
1477482946.424:    446  82  10  739
1477482946.424:    659  82  10  739
1477482946.425:    809  82  10  739
1477482946.425:    904  82  10  739
1477482946.425:   1028  82  10  739
1477482946.425:   1211  82  10  739
1477482946.425:   1391  82  10  739
1477482946.425:   1472  82  10  739
1477482946.425:   1428  82  10  739
1477482946.425:   1317  82  10  739
1477482946.426:   1199  82  10  739
1477482946.427:   1057  82  10  739
1477482946.428:    846  82  10  739
1477482946.428:    611  82  10  739
1477482946.429:    505  82  10  739
1477482946.429:    633  82  10  739
1477482946.451:    923  82  10  739
1477482946.451:   1168  82  10  739
1477482946.451:   1246  82  10  739
1477482946.451:   1224  82  10  739
1477482946.451:   1242  82  10  739
1477482946.451:   1330  82  10  739
1477482946.451:   1386  82  10  739
1477482946.452:   1304  82  10  739
1477482946.452:   1103  82  10  739
1477482946.452:    877  82  10  739
1477482946.452:    681  82  10  739
1477482946.452:    518  82  10  739
1477482946.453:    421  82  10  739
1477482946.453:    443  82  10  739
1477482946.453:    585  82  10  739
1477482946.453:    744  82  10  739
1477482946.453:    807  82  10  739
1477482946.453:    749  82  10  739
1477482946.453:    654  82  10  739
1477482946.454:    611  82  10  739
1477482946.454:    636  82  10  739
1477482946.454:    685  82  10  739
1477482946.454:    707  82  10  739
1477482946.454:    667  82  10  739
1477482946.454:    570  82  10  739
1477482946.455:    469  82  10  739
1477482946.455:    431  82  10  739
1477482946.455:    467  82  10  739
1477482946.455:    520  82  10  739
1477482946.455:    549  82  10  739
1477482946.455:    584  82  10  739
1477482946.455:    657  82  10  739
1477482946.455:    735  82  10  739
1477482946.456:    741  82  10  739
1477482946.456:    664  82  10  739
1477482946.456:    607  82  10  739
1477482946.456:    631  82  10  739
1477482946.456:    660  82  10  739
1477482946.456:    577  82  10  739
1477482946.459:    437  82  10  739
1477482946.459:    445  82  10  739
1477482946.462:    682  82  10  739
1477482946.465:    943  82  10  739
1477482946.465:    954  82  10  739
1477482946.469:    711  82  10  739
1477482946.469:    504  82  10  739
1477482946.473:    582  82  10  739
1477482946.473:    841  82  10  739
1477482946.475:    951  82  10  739
1477482946.477:    770  82  10  739
1477482946.477:    490  82  10  739
1477482946.480:    376  82  10  739
1477482946.482:    469  82  10  739
1477482946.486:    580  82  10  739
1477482946.487:    542  82  10  739
1477482946.489:    373  82  10  739
1477482946.502:    199  82  10  739
1477482946.502:     96  82  10  739
1477482946.503:     51  82  10  739
1477482946.503:     38  82  10  739
1477482946.504:     48  82  10  739
1477482946.504:     68  82  10  739
1477482946.504:    106  82  10  739
1477482946.505:    207  82  10  739
1477482946.505:    386  82  10  739
1477482946.507:    571  82  10  739
1477482946.509:    632  82  10  739
1477482946.513:    504  82  10  739
1477482946.522:    310  82  10  739
1477482946.522:    255  82  10  739
1477482946.522:    386  82  10  739
1477482946.523:    524  82  10  739
1477482946.523:    422  82  10  739
1477482946.523:     53  82  10  739
1477482946.558:   -349  82  10  739
1477482946.558:   -510  82  10  739
1477482946.566:   -363  82  10  739
1477482946.567:    -82  82  10  739
1477482946.567:    102  82  10  739
1477482946.568:    123  82  10  739
1477482946.568:    114  82  10  739
1477482946.568:    251  82  10  739
1477482946.570:    570  82  10  739
1477482946.571:    912  82  10  739
1477482946.571:   1082  82  10  739
1477482946.571:   1043  82  10  739
1477482946.572:    928  82  10  739
1477482946.572:    849  82  10  739
1477482946.574:    746  82  10  739
1477482946.579:    470  82  10  739
1477482946.590:      8  82  10  739
1477482946.590:   -463  82  10  739
1477482946.590:   -768  82  10  739
1477482946.590:   -932  82  10  739
1477482946.590:  -1098  82  10  739
1477482946.590:  -1299  82  10  739
1477482946.591:  -1393  82  10  739
1477482946.591:  -1257  82  10  739
1477482946.591:   -957  82  10  739
1477482946.591:   -685  82  10  739
1477482946.591:   -528  82  10  739
1477482946.591:   -408  82  10  739
1477482946.591:   -251  82  10  739
1477482946.591:   -104  82  10  739
1477482946.592:    -80  82  10  739
1477482946.592:   -182  82  10  739
1477482946.592:   -289  82  10  739
1477482946.592:   -270  82  10  739
1477482946.593:   -134  82  10  739
1477482946.597:     14  82  10  739
1477482946.597:    109  82  10  739
1477482946.599:    184  82  10  739
1477482946.600:    292  82  10  739
1477482946.602:    446  82  10  739
1477482946.605:    601  82  10  739
1477482946.607:    709  82  10  739
1477482946.613:    748  82  10  739
1477482946.613:    728  82  10  739
1477482946.613:    671  82  10  739
1477482946.613:    601  82  10  739
1477482946.616:    534  82  10  739
1477482946.617:    476  82  10  739
1477482946.620:    418  82  10  739
1477482946.624:    344  82  10  739
1477482946.638:    294  82  10  739
1477482946.638:    321  82  10  739
1477482946.638:    425  82  10  739
1477482946.639:    530  82  10  739
1477482946.639:    549  82  10  739
1477482946.640:    475  82  10  739
1477482946.640:    426  82  10  739
1477482946.640:    510  82  10  739
1477482946.641:    688  82  10  739
1477482946.642:    806  82  10  739
1477482946.643:    780  82  10  739
1477482946.645:    693  82  10  739
1477482946.648:    678  82  10  739
1477482946.650:    734  82  10  739
1477482946.657:    730  82  10  739
1477482946.658:    605  82  10  739
1477482946.659:    474  82  10  739
1477482946.659:    499  82  10  739
1477482946.659:    663  82  10  739
1477482946.662:    783  82  10  739
1477482946.662:    751  82  10  739
1477482946.665:    674  82  10  739
1477482946.666:    721  82  10  739
1477482946.670:    883  82  10  739
1477482946.671:    978  82  10  739
1477482946.673:    898  82  10  739
1477482946.675:    719  82  10  739
1477482946.679:    587  82  10  739
1477482946.690:    515  82  10  739
1477482946.691:    392  82  10  739
1477482946.691:    181  82  10  739
1477482946.691:     26  82  10  739
1477482946.691:     73  82  10  739
1477482946.692:    277  82  10  739
1477482946.693:    470  82  10  739
1477482946.693:    563  82  10  739
1477482946.695:    646  82  10  739
1477482946.696:    818  82  10  739
1477482946.702:   1030  82  10  739
1477482946.707:   1137  82  10  739
1477482946.708:   1072  82  10  739
1477482946.709:    899  82  10  739
1477482946.709:    705  82  10  739
1477482946.710:    519  82  10  739
1477482946.720:    352  82  10  739
1477482946.721:    240  82  10  739
1477482946.721:    200  82  10  739
1477482946.721:    202  82  10  739
1477482946.722:    208  82  10  739
1477482946.722:    262  82  10  739
1477482946.723:    420  82  10  739
1477482946.723:    636  82  10  739
1477482946.726:    769  82  10  739
1477482946.746:    762  82  10  739
1477482946.751:    723  82  10  739
1477482946.754:    780  82  10  739
1477482946.755:    879  82  10  739
1477482946.758:    869  82  10  739
1477482946.758:    735  82  10  739
1477482946.761:    673  82  10  739
1477482946.762:    852  82  10  739
1477482946.762:   1171  82  10  739
1477482946.762:   1358  82  10  739
1477482946.762:   1312  82  10  739
1477482946.763:   1209  82  10  739
1477482946.763:   1249  81  10  739
1477482946.786:   1391  81  10  739
1477482946.786:   1431  81  10  739
1477482946.786:   1279  81  10  739
1477482946.786:   1077  81  10  739
1477482946.786:   1001  81  10  739
1477482946.787:   1048  81  10  739
1477482946.787:   1094  81  10  739
1477482946.787:   1102  81  10  739
1477482946.787:   1167  81  10  739
1477482946.788:   1344  81  10  739
1477482946.788:   1519  81  10  739
1477482946.789:   1510  81  10  739
1477482946.789:   1303  81  10  739
1477482946.789:   1104  81  10  739
1477482946.789:   1122  81  10  739
1477482946.789:   1338  81  10  739
1477482946.790:   1538  81  10  739
1477482946.791:   1539  81  10  739
1477482946.792:   1379  81  10  739
1477482946.792:   1269  81  10  739
1477482946.793:   1338  81  10  739
1477482946.794:   1507  81  10  739
1477482946.797:   1587  81  10  739
1477482946.800:   1508  81  10  739
1477482946.803:   1371  81  10  739
1477482946.804:   1318  81  10  739
1477482946.805:   1367  81  10  739
1477482946.806:   1421  81  10  739
1477482946.808:   1402  81  10  739
1477482946.814:   1333  81  10  739
1477482946.834:   1281  81  10  739
1477482946.835:   1270  81  10  739
1477482946.836:   1271  81  10  739
1477482946.836:   1270  81  10  739
1477482946.837:   1279  81  10  739
1477482946.838:   1294  81  10  739
1477482946.839:   1281  81  10  739
1477482946.839:   1222  81  10  739
1477482946.840:   1166  81  10  739
1477482946.841:   1182  81  10  739
1477482946.853:   1243  81  10  739
1477482946.853:   1224  81  10  739
1477482946.853:   1060  81  10  739
1477482946.853:    851  81  10  739
1477482946.854:    778  81  10  739
1477482946.854:    895  81  10  739
1477482946.854:   1069  81  10  739
1477482946.854:   1103  81  10  739
1477482946.854:    942  81  10  739
1477482946.855:    703  81  10  739
1477482946.855:    525  81  10  739
1477482946.855:    455  81  10  739
1477482946.858:    462  81  10  739
1477482946.859:    487  81  10  739
1477482946.860:    477  81  10  739
1477482946.861:    377  81  10  739
1477482946.865:    196  81  10  739
1477482946.866:     64  81  10  739
1477482946.868:    138  81  10  739
1477482946.872:    440  81  10  739
1477482946.872:    767  81  10  739
1477482946.874:    875  81  10  739
1477482946.876:    739  81  10  739
1477482946.877:    570  81  10  739
1477482946.879:    578  81  10  739
1477482946.881:    751  81  10  739
1477482946.886:    904  81  10  739
1477482946.886:    890  81  10  739
1477482946.901:    716  81  10  739
1477482946.902:    507  81  10  739
1477482946.903:    363  81  10  739
1477482946.903:    315  81  10  739
1477482946.905:    365  81  10  739
1477482946.905:    488  81  10  739
1477482946.906:    615  81  10  739
1477482946.907:    672  81  10  739
1477482946.908:    653  81  10  739
1477482946.908:    629  81  10  739
1477482946.921:    663  81  10  739
1477482946.921:    739  81  10  739
1477482946.922:    782  81  10  739
1477482946.923:    740  81  10  739
1477482946.924:    626  81  10  739
1477482946.925:    492  81  10  739
1477482946.925:    377  81  10  739
1477482946.927:    310  81  10  739
1477482946.927:    289  81  10  739
1477482946.931:    293  81  10  739
1477482946.931:    271  81  10  739
1477482946.932:    212  81  10  739
1477482946.938:    173  81  10  739
1477482946.938:    210  81  10  739
1477482946.939:    325  81  10  739
1477482946.939:    451  81  10  739
1477482946.940:    525  81  10  739
1477482946.940:    558  81  10  739
1477482946.942:    597  81  10  739
1477482946.943:    661  81  10  739
1477482946.945:    706  81  10  739
1477482946.947:    687  81  10  739
1477482946.950:    629  81  10  739
1477482946.954:    581  81  10  739
1477482946.955:    554  81  10  739
1477482946.956:    525  81  10  739
1477482946.961:    489  81  10  739
1477482946.963:    499  81  10  739
1477482946.980:    581  81  10  739
1477482946.980:    692  81  10  739
1477482946.980:    734  81  10  739
1477482946.980:    673  81  10  739
1477482946.980:    584  81  10  739
1477482946.980:    575  81  10  739
1477482946.981:    647  81  10  739
1477482946.981:    692  81  10  739
1477482946.981:    650  81  10  739
1477482946.981:    590  81  10  739
1477482946.981:    620  81  10  739
1477482946.983:    748  81  10  739
1477482946.987:    862  81  10  739
1477482946.987:    869  81  10  739
1477482946.988:    820  81  10  739
1477482946.991:    823  81  10  739
1477482946.998:    900  81  10  739
1477482947.000:    975  81  10  739
1477482947.000:    970  81  10  739
1477482947.002:    904  81  10  739
1477482947.005:    841  81  10  739
1477482947.006:    800  81  10  739
1477482947.006:    759  81  10  739
1477482947.007:    687  81  10  739
1477482947.009:    593  81  10  739
1477482947.015:    505  81  10  739
1477482947.015:    423  81  10  739
1477482947.015:    344  81  10  739
1477482947.017:    285  81  10  739
1477482947.019:    272  81  10  739
1477482947.020:    312  81  10  739
1477482947.023:    379  81  10  739
1477482947.023:    466  81  10  739
1477482947.028:    563  81  10  739
1477482947.029:    655  81  10  739
1477482947.030:    712  81  10  739
1477482947.034:    720  81  10  739
1477482947.034:    708  81  10  739
1477482947.054:    727  81  10  739
1477482947.054:    784  81  10  739
1477482947.054:    826  81  10  739
1477482947.055:    792  81  10  739
1477482947.055:    695  81  10  739
1477482947.055:    614  81  10  739
1477482947.056:    630  81  10  739
1477482947.056:    735  81  10  739
1477482947.057:    838  81  10  739
1477482947.057:    861  81  10  739
1477482947.058:    817  81  10  739
1477482947.058:    779  81  10  739
1477482947.060:    806  81  10  739
1477482947.061:    874  81  10  739
1477482947.064:    903  81  10  739
1477482947.136:    856  81  10  739
1477482947.141:    781  81  10  739
1477482947.141:    772  81  10  739
1477482947.141:    838  81  10  739
1477482947.142:    876  81  10  739
1477482947.142:    800  81  10  739
1477482947.142:    670  81  10  739
1477482947.142:    644  81  10  739
1477482947.142:    811  81  10  739
1477482947.142:   1064  81  10  739
1477482947.142:   1196  81  10  739
1477482947.143:   1118  81  10  739
1477482947.143:    961  81  10  739
1477482947.143:    928  81  10  739
1477482947.143:   1056  81  10  739
1477482947.143:   1181  81  10  739
1477482947.143:   1127  81  10  739
1477482947.144:    908  81  10  739
1477482947.144:    706  81  10  739
1477482947.144:    674  81  10  739
1477482947.144:    786  81  10  739
1477482947.144:    888  81  10  739
1477482947.144:    880  81  10  739
1477482947.144:    817  81  10  739
1477482947.145:    820  81  10  739
1477482947.145:    944  81  10  739
1477482947.145:   1136  81  10  739
1477482947.145:   1298  81  10  739
1477482947.145:   1376  81  10  739
1477482947.145:   1402  81  10  739
1477482947.145:   1427  81  10  739
1477482947.145:   1450  81  10  739
1477482947.146:   1402  81  10  739
1477482947.146:   1245  81  10  739
1477482947.146:   1017  81  10  739
1477482947.147:    813  81  10  739
1477482947.147:    716  81  10  739
1477482947.148:    726  81  10  739
1477482947.148:    782  81  10  739
1477482947.148:    808  81  10  739
1477482947.148:    791  81  10  739
1477482947.148:    758  81  10  739
1477482947.148:    742  81  10  739
1477482947.152:    750  81  10  739
1477482947.152:    752  81  10  739
1477482947.153:    683  81  10  739
1477482947.154:    520  81  10  739
1477482947.157:    309  81  10  739
1477482947.160:    150  81  10  739
1477482947.171:    113  81  10  739
1477482947.171:    195  81  10  739
1477482947.172:    331  81  10  739
1477482947.172:    457  81  10  739
1477482947.172:    544  81  10  739
1477482947.172:    595  81  10  739
1477482947.174:    629  81  10  739
1477482947.175:    671  81  10  739
1477482947.179:    701  81  10  739
1477482947.180:    657  81  10  739
1477482947.181:    491  81  10  739
1477482947.182:    237  81  10  739
1477482947.185:     12  81  10  739
1477482947.192:    -84  81  10  739
1477482947.192:    -73  81  10  739
1477482947.193:    -47  81  10  739
1477482947.193:    -71  81  10  739
1477482947.195:    -93  81  10  739
1477482947.196:    -14  81  10  739
1477482947.199:    180  81  10  739
1477482947.214:    383  81  10  739
1477482947.215:    466  81  10  739
1477482947.215:    406  81  10  739
1477482947.216:    313  81  10  739
1477482947.216:    299  81  10  739
1477482947.216:    361  81  10  739
1477482947.218:    370  81  10  739
1477482947.219:    228  81  10  739
1477482947.219:      0  81  10  739
1477482947.221:   -120  81  10  739
1477482947.221:     -5  81  10  739
1477482947.223:    249  81  10  739
1477482947.232:    403  81  10  739
1477482947.233:    336  81  10  739
1477482947.233:    188  81  10  739
1477482947.233:    199  81  10  739
1477482947.235:    398  81  10  739
1477482947.236:    579  81  10  739
1477482947.236:    545  81  10  739
1477482947.238:    357  81  10  739
1477482947.240:    254  81  10  739
1477482947.243:    342  81  10  739
1477482947.245:    459  81  10  739
1477482947.252:    372  81  10  739
1477482947.252:     85  81  10  739
1477482947.255:   -133  81  10  739
1477482947.255:    -83  81  10  739
1477482947.255:    115  81  10  739
1477482947.256:    187  81  10  739
1477482947.257:     52  81  10  739
1477482947.264:    -87  81  10  739
1477482947.264:      5  81  10  739
1477482947.264:    291  81  10  739
1477482947.269:    489  81  10  739
1477482947.281:    409  81  10  739
1477482947.281:    157  81  10  739
1477482947.282:     -9  81  10  739
1477482947.282:     31  81  10  739
1477482947.283:    183  81  10  739
1477482947.285:    301  81  10  739
1477482947.286:    366  81  10  739
1477482947.286:    463  81  10  739
1477482947.287:    637  81  10  739
1477482947.288:    847  81  10  739
1477482947.290:   1037  81  10  739
1477482947.291:   1186  81  10  739
1477482947.317:   1270  81  10  739
1477482947.319:   1231  81  10  739
1477482947.320:   1047  81  10  739
1477482947.320:    785  81  10  739
1477482947.321:    508  81  10  739
1477482947.322:    182  81  10  739
1477482947.322:   -274  81  10  739
1477482947.323:   -842  81  10  739
1477482947.323:  -1342  81  10  739
1477482947.324:  -1592  81  10  739
1477482947.325:  -1598  81  10  739
1477482947.325:  -1519  81  10  739
1477482947.326:  -1457  81  10  739
1477482947.327:  -1353  81  10  739
1477482947.327:  -1101  81  10  739
1477482947.328:   -706  81  10  739
1477482947.340:   -301  81  10  739
1477482947.340:     25  81  10  739
1477482947.340:    270  81  10  739
1477482947.340:    452  81  10  739
1477482947.341:    550  81  10  739
1477482947.341:    541  81  10  739
1477482947.341:    469  81  10  739
1477482947.341:    411  81  10  739
1477482947.341:    401  81  10  739
1477482947.341:    410  81  10  739
1477482947.345:    402  81  10  739
1477482947.345:    385  81  10  739
1477482947.350:    387  81  10  739
1477482947.351:    424  81  10  739
1477482947.352:    507  81  10  739
1477482947.353:    624  81  10  739
1477482947.355:    723  81  10  739
1477482947.359:    727  81  10  739
1477482947.359:    618  81  10  739
1477482947.362:    479  81  10  739
1477482947.363:    409  81  10  739
1477482947.364:    415  81  10  739
1477482947.366:    417  81  10  739
1477482947.371:    375  81  10  739
1477482947.389:    362  81  10  739
1477482947.389:    442  81  10  739
1477482947.401:    536  81  10  739
1477482947.402:    511  81  10  739
1477482947.402:    383  81  10  739
1477482947.402:    342  81  10  739
1477482947.403:    517  81  10  739
1477482947.403:    770  81  10  739
1477482947.403:    818  81  10  739
1477482947.403:    566  81  10  739
1477482947.404:    248  81  10  739
1477482947.404:    159  81  10  739
1477482947.404:    330  81  10  739
1477482947.404:    537  81  10  739
1477482947.404:    571  81  10  739
1477482947.405:    465  81  10  739
1477482947.405:    397  81  10  739
1477482947.405:    475  81  10  739
1477482947.405:    630  81  10  739
1477482947.406:    725  81  10  739
1477482947.413:    716  81  10  739
1477482947.414:    657  81  10  739
1477482947.423:    602  81  10  739
1477482947.424:    558  81  10  739
1477482947.427:    504  81  10  739
1477482947.427:    445  81  10  739
1477482947.427:    427  81  10  739
1477482947.427:    491  81  10  739
1477482947.428:    610  81  10  739
1477482947.428:    706  81  10  739
1477482947.429:    724  81  10  739
1477482947.430:    695  81  10  739
1477482947.436:    696  81  10  739
1477482947.436:    780  81  10  739
1477482947.437:    897  81  10  739
1477482947.441:    944  81  10  739
1477482947.441:    892  81  10  739
1477482947.445:    815  81  10  739
1477482947.445:    788  81  10  739
1477482947.446:    807  81  10  739
1477482947.448:    809  81  10  739
1477482947.450:    773  81  10  739
1477482947.455:    743  81  10  739
1477482947.455:    767  81  10  739
1477482947.458:    833  81  10  739
1477482947.459:    881  81  10  739
1477482947.475:    882  81  10  739
1477482947.476:    854  81  10  739
1477482947.477:    813  81  10  739
1477482947.479:    754  81  10  739
1477482947.479:    673  81  10  739
1477482947.480:    611  81  10  739
1477482947.481:    593  81  10  739
1477482947.481:    601  81  10  739
1477482947.482:    612  81  10  739
1477482947.483:    654  81  10  739
1477482947.483:    792  81  10  739
1477482947.484:   1024  81  10  739
1477482947.495:   1260  81  10  739
1477482947.496:   1414  81  10  739
1477482947.496:   1479  81  10  739
1477482947.496:   1512  81  10  739
1477482947.496:   1546  81  10  739
1477482947.496:   1525  81  10  739
1477482947.496:   1407  81  10  739
1477482947.500:   1226  82  11  738
1477482947.500:   1081  82  11  738
1477482947.501:   1034  82  11  738
1477482947.502:   1055  82  11  738
1477482947.508:   1064  82  11  738
1477482947.509:   1009  82  11  738
1477482947.513:    924  82  11  738
1477482947.514:    910  82  11  738
1477482947.519:   1017  82  11  738
1477482947.520:   1192  82  11  738
1477482947.520:   1326  82  11  738
1477482947.523:   1358  82  11  738
1477482947.524:   1340  82  11  738
1477482947.524:   1382  82  11  738
1477482947.525:   1503  82  11  738
1477482947.529:   1591  82  11  738
1477482947.529:   1540  82  11  738
1477482947.564:   1372  82  11  738
1477482947.565:   1219  82  11  738
1477482947.570:   1184  82  11  738
1477482947.571:   1245  82  11  738
1477482947.571:   1303  82  11  738
1477482947.572:   1303  82  11  738
1477482947.573:   1279  82  11  738
1477482947.573:   1298  82  11  738
1477482947.573:   1389  82  11  738
1477482947.573:   1527  82  11  738
1477482947.573:   1658  82  11  738
1477482947.574:   1720  82  11  738
1477482947.574:   1682  82  11  738
1477482947.574:   1568  82  11  738
1477482947.574:   1435  82  11  738
1477482947.574:   1351  82  11  738
1477482947.575:   1337  82  11  738
1477482947.575:   1353  82  11  738
1477482947.575:   1346  82  11  738
1477482947.576:   1283  82  11  738
1477482947.576:   1164  82  11  738
1477482947.576:   1009  82  11  738
1477482947.576:    867  82  11  738
1477482947.578:    816  82  11  738
1477482947.580:    878  82  11  738
1477482947.581:    981  82  11  738
1477482947.584:   1008  82  11  738
1477482947.585:    926  82  11  738
1477482947.586:    823  82  11  738
1477482947.591:    817  82  11  738
1477482947.591:    912  82  11  738
1477482947.593:    990  82  11  738
1477482947.594:    944  82  11  738
1477482947.595:    811  82  11  738
1477482947.600:    719  82  11  738
1477482947.601:    729  82  11  738
1477482947.602:    779  82  11  738
1477482947.603:    786  82  11  738
1477482947.605:    751  82  11  738
1477482947.609:    735  82  11  738
1477482947.630:    770  82  11  738
1477482947.631:    827  82  11  738
1477482947.631:    869  82  11  738
1477482947.631:    909  82  11  738
1477482947.632:    956  82  11  738
1477482947.633:    958  82  11  738
1477482947.633:    853  82  11  738
1477482947.634:    684  82  11  738
1477482947.634:    554  82  11  738
1477482947.634:    502  82  11  738
1477482947.635:    458  82  11  738
1477482947.635:    363  82  11  738
1477482947.635:    273  82  11  738
1477482947.637:    293  82  11  738
1477482947.638:    429  82  11  738
1477482947.640:    565  82  11  738
1477482947.672:    594  82  11  738
1477482947.673:    560  82  11  738
1477482947.673:    568  82  11  738
1477482947.674:    623  82  11  738
1477482947.675:    627  82  11  738
1477482947.677:    524  82  11  738
1477482947.677:    374  82  11  738
1477482947.678:    280  82  11  738
1477482947.679:    280  82  11  738
1477482947.680:    341  82  11  738
1477482947.681:    417  82  11  738
1477482947.681:    483  82  11  738
1477482947.682:    522  82  11  738
1477482947.683:    531  82  11  738
1477482947.684:    546  82  11  738
1477482947.684:    607  82  11  738
1477482947.701:    704  82  11  738
1477482947.704:    774  82  11  738
1477482947.706:    799  82  11  738
1477482947.706:    832  82  11  738
1477482947.707:    907  82  11  738
1477482947.709:    955  82  11  738
1477482947.709:    881  82  11  738
1477482947.710:    712  82  11  738
1477482947.710:    611  82  11  738
1477482947.710:    668  82  11  738
1477482947.711:    765  82  11  738
1477482947.711:    712  82  11  738
1477482947.711:    509  82  11  738
1477482947.712:    368  82  11  738
1477482947.712:    454  82  11  738
1477482947.712:    673  82  11  738
1477482947.712:    795  82  11  738
1477482947.713:    736  82  11  738
1477482947.713:    650  82  11  738
1477482947.713:    721  82  11  738
1477482947.714:    902  82  11  738
1477482947.714:    963  82  11  738
1477482947.716:    783  82  11  738
1477482947.717:    508  82  11  738
1477482947.727:    402  82  11  738
1477482947.727:    547  82  11  738
1477482947.727:    752  82  11  738
1477482947.730:    775  82  11  738
1477482947.730:    606  82  11  738
1477482947.732:    480  82  11  738
1477482947.735:    583  82  11  738
1477482947.736:    817  82  11  738
1477482947.739:    933  82  11  738
1477482947.739:    836  82  11  738
1477482947.751:    695  82  11  738
1477482947.751:    714  82  11  738
1477482947.751:    882  82  11  738
1477482947.751:    993  82  11  738
1477482947.751:    928  82  11  738
1477482947.751:    793  82  11  738
1477482947.752:    745  82  11  738
1477482947.752:    784  82  11  738
1477482947.755:    792  82  11  738
1477482947.756:    727  82  11  738
1477482947.761:    693  82  11  738
1477482947.761:    748  82  11  738
1477482947.763:    799  82  11  738
1477482947.767:    712  82  11  738
1477482947.769:    523  82  11  738
1477482947.770:    421  82  11  738
1477482947.770:    518  82  11  738
1477482947.775:    701  82  11  738
1477482947.777:    766  82  11  738
1477482947.777:    668  82  11  738
1477482947.779:    548  82  11  738
1477482947.784:    555  82  11  738
1477482947.796:    676  82  11  738
1477482947.796:    787  82  11  738
1477482947.796:    804  82  11  738
1477482947.796:    731  82  11  738
1477482947.796:    624  82  11  738
1477482947.796:    515  82  11  738
1477482947.797:    432  82  11  738
1477482947.797:    420  82  11  738
1477482947.798:    503  82  11  738
1477482947.859:    627  82  11  738
1477482947.875:    694  82  11  738
1477482947.875:    675  82  11  738
1477482947.875:    635  82  11  738
1477482947.875:    662  82  11  738
1477482947.876:    773  82  11  738
1477482947.876:    901  82  11  738
1477482947.876:    956  82  11  738
1477482947.876:    919  82  11  738
1477482947.876:    837  82  11  738
1477482947.877:    761  82  11  738
1477482947.877:    717  82  11  738
1477482947.877:    718  82  11  738
1477482947.877:    752  82  11  738
1477482947.877:    789  82  11  738
1477482947.878:    808  82  11  738
1477482947.878:    821  82  11  738
1477482947.879:    876  82  11  738
1477482947.879:    984  82  11  738
1477482947.879:   1080  82  11  738
1477482947.879:   1086  82  11  738
1477482947.880:   1009  82  11  738
1477482947.880:    960  82  11  738
1477482947.880:   1027  82  11  738
1477482947.880:   1177  82  11  738
1477482947.880:   1296  82  11  738
1477482947.881:   1304  82  11  738
1477482947.881:   1220  82  11  738
1477482947.881:   1143  82  11  738
1477482947.881:   1140  82  11  738
1477482947.882:   1201  82  11  738
1477482947.882:   1266  82  11  738
1477482947.882:   1265  82  11  738
1477482947.882:   1175  82  11  738
1477482947.882:   1041  82  11  738
1477482947.882:    938  82  11  738
1477482947.883:    914  82  11  738
1477482947.884:    926  82  11  738
1477482947.884:    905  82  11  738
1477482947.884:    826  82  11  738
1477482947.885:    756  82  11  738
1477482947.885:    757  82  11  738
1477482947.885:    815  82  11  738
1477482947.885:    864  82  11  738
1477482947.886:    866  82  11  738
1477482947.889:    850  82  11  738
1477482947.893:    847  82  11  738
1477482947.893:    840  82  11  738
1477482947.895:    782  82  11  738
1477482947.896:    676  82  11  738
1477482947.897:    586  82  11  738
1477482947.922:    550  82  11  738
1477482947.923:    535  82  11  738
1477482947.924:    486  82  11  738
1477482947.924:    393  82  11  738
1477482947.930:    309  82  11  738
1477482947.931:    286  82  11  738
1477482947.931:    298  82  11  738
1477482947.931:    262  82  11  738
1477482947.932:    143  82  11  738
1477482947.932:     24  82  11  738
1477482947.932:     30  82  11  738
1477482947.933:    183  82  11  738
1477482947.934:    353  82  11  738
1477482947.934:    378  82  11  738
1477482947.946:    218  82  11  738
1477482947.947:     29  82  11  738
1477482947.947:      3  82  11  738
1477482947.947:    160  82  11  738
1477482947.948:    348  82  11  738
1477482947.948:    408  82  11  738
1477482947.949:    340  82  11  738
1477482947.949:    268  82  11  738
1477482947.950:    277  82  11  738
1477482947.950:    321  82  11  738
1477482947.951:    312  82  11  738
1477482947.951:    238  82  11  738
1477482947.952:    132  82  11  738
1477482947.952:      4  82  11  738
1477482947.955:   -146  82  11  738
1477482947.958:   -271  82  11  738
1477482947.969:   -270  82  11  738
1477482947.969:   -118  82  11  738
1477482947.970:     74  82  11  738
1477482947.970:    159  82  11  738
1477482947.970:    121  82  11  738
1477482947.970:     92  82  11  738
1477482947.971:    155  82  11  738
1477482947.976:    233  82  11  738
1477482947.978:    198  82  11  738
1477482947.984:     54  82  11  738
1477482947.985:    -53  82  11  738
1477482947.988:    -32  82  11  738
1477482947.989:     37  82  11  738
1477482947.990:     12  82  11  738
1477482947.992:   -107  82  11  738
1477482947.993:   -172  82  11  738
1477482947.993:    -66  82  11  738
1477482947.993:    143  82  11  738
1477482947.993:    275  82  11  738
1477482947.996:    227  82  11  738
1477482947.999:     64  82  11  738
1477482948.003:    -51  82  11  738
1477482948.022:    -22  82  11  738
1477482948.023:    102  82  11  738
1477482948.023:    182  82  11  738
1477482948.023:    115  82  11  738
1477482948.023:    -71  82  11  738
1477482948.023:   -258  82  11  738
1477482948.024:   -346  82  11  738
1477482948.024:   -362  82  11  738
1477482948.024:   -416  82  11  738
1477482948.024:   -567  82  11  738
1477482948.024:   -735  82  11  738
1477482948.025:   -749  82  11  738
1477482948.027:   -533  82  11  738
1477482948.031:   -197  82  11  738
1477482948.031:     62  82  11  738
1477482948.035:    152  82  11  738
1477482948.035:    182  82  11  738
1477482948.035:    334  82  11  738
1477482948.038:    645  82  11  738
1477482948.040:    935  82  11  738
1477482948.048:    953  82  11  738
1477482948.048:    632  82  11  738
1477482948.048:    133  82  11  738
1477482948.049:   -326  82  11  738
1477482948.049:   -672  82  11  738
1477482948.051:   -986  82  11  738
1477482948.054:  -1339  82  11  738
1477482948.055:  -1661  82  11  738
1477482948.058:  -1811  82  11  738
1477482948.059:  -1743  82  11  738
1477482948.063:  -1542  82  11  738
1477482948.064:  -1324  82  11  738
1477482948.066:  -1124  82  11  738
1477482948.068:   -901  82  11  738
1477482948.072:   -618  82  11  738
1477482948.072:   -321  82  11  738
1477482948.073:   -123  82  11  738
1477482948.077:    -99  82  11  738
1477482948.078:   -205  82  11  738
1477482948.080:   -292  82  11  738
1477482948.082:   -238  82  11  738
1477482948.087:    -67  82  11  738
1477482948.100:     96  82  11  738
1477482948.100:    144  82  11  738
1477482948.100:    105  82  11  738
1477482948.100:     90  82  11  738
1477482948.100:    152  82  11  738
1477482948.101:    250  82  11  738
1477482948.101:    331  82  11  738
1477482948.102:    398  82  11  738
1477482948.102:    475  82  11  738
1477482948.105:    533  82  11  738
1477482948.105:    496  82  11  738
1477482948.109:    339  82  11  738
1477482948.110:    160  82  11  738
1477482948.111:     93  82  11  738
1477482948.113:    172  82  11  738
1477482948.115:    317  82  11  738
1477482948.119:    422  82  11  738
1477482948.119:    434  82  11  738
1477482948.134:    366  82  11  738
1477482948.135:    252  82  11  738
1477482948.136:    145  82  11  738
1477482948.137:    108  82  11  738
1477482948.137:    154  82  11  738
1477482948.139:    225  82  11  738
1477482948.139:    227  82  11  738
1477482948.139:    138  82  11  738
1477482948.140:     47  82  11  738
1477482948.140:     46  82  11  738
1477482948.146:    132  82  11  738
1477482948.146:    213  82  11  738
1477482948.153:    231  82  11  738
1477482948.155:    215  82  11  738
1477482948.155:    217  82  11  738
1477482948.155:    230  82  11  738
1477482948.156:    210  82  11  738
1477482948.156:    159  82  11  738
1477482948.157:    140  82  11  738
1477482948.159:    186  82  11  738
1477482948.160:    268  82  11  738
1477482948.161:    331  82  11  738
1477482948.163:    358  82  11  738
1477482948.165:    369  82  11  738
1477482948.168:    358  82  11  738
1477482948.169:    296  82  11  738
1477482948.173:    194  82  11  738
1477482948.173:    114  82  11  738
1477482948.175:    107  82  11  738
1477482948.176:    140  82  11  738
1477482948.179:    132  82  11  738
1477482948.181:     68  82  11  738
1477482948.183:     31  82  11  738
1477482948.187:    111  82  11  738
1477482948.195:    277  82  11  738
1477482948.195:    409  82  11  738
1477482948.196:    421  82  11  738
1477482948.196:    347  82  11  738
1477482948.196:    314  82  11  738
1477482948.197:    396  82  11  738
1477482948.201:    508  82  11  738
1477482948.201:    480  82  11  738
1477482948.203:    265  82  11  738
1477482948.204:     35  82  11  738
1477482948.206:     19  82  11  738
1477482948.217:    236  82  11  738
1477482948.218:    433  82  11  738
1477482948.219:    338  82  11  738
1477482948.236:     -1  82  11  738
1477482948.236:   -240  82  11  738
1477482948.236:   -111  82  11  738
1477482948.236:    273  82  11  738
1477482948.237:    543  82  11  738
1477482948.237:    498  82  11  738
1477482948.237:    302  82  11  738
1477482948.237:    256  82  11  738
1477482948.237:    433  82  11  738
1477482948.237:    612  82  11  738
1477482948.238:    574  82  11  738
1477482948.239:    360  82  11  738
1477482948.239:    191  81  10  773
1477482948.242:    199  81  10  773
1477482948.242:    299  81  10  773
1477482948.246:    356  81  10  773
1477482948.246:    363  81  10  773
1477482948.251:    421  81  10  773
1477482948.251:    564  81  10  773
1477482948.251:    700  81  10  773
1477482948.255:    748  81  10  773
1477482948.256:    748  81  10  773
1477482948.264:    795  81  10  773
1477482948.264:    897  81  10  773
1477482948.264:    956  81  10  773
1477482948.264:    911  81  10  773
1477482948.265:    825  81  10  773
1477482948.269:    806  81  10  773
1477482948.269:    885  81  10  773
1477482948.271:    996  81  10  773
1477482948.273:   1076  81  10  773
1477482948.274:   1139  81  10  773
1477482948.277:   1206  81  10  773
1477482948.278:   1255  81  10  773
1477482948.283:   1234  81  10  773
1477482948.283:   1158  81  10  773
1477482948.308:   1111  81  10  773
1477482948.308:   1137  81  10  773
1477482948.309:   1179  81  10  773
1477482948.309:   1126  81  10  773
1477482948.309:    930  81  10  773
1477482948.309:    678  81  10  773
1477482948.309:    524  81  10  773
1477482948.310:    550  81  10  773
1477482948.310:    694  81  10  773
1477482948.310:    796  81  10  773
1477482948.311:    726  81  10  773
1477482948.311:    502  81  10  773
1477482948.311:    296  81  10  773
1477482948.311:    268  81  10  773
1477482948.313:    415  81  10  773
1477482948.317:    584  81  10  773
1477482948.317:    635  81  10  773
1477482948.319:    567  81  10  773
1477482948.320:    494  81  10  773
1477482948.325:    499  81  10  773
1477482948.325:    566  81  10  773
1477482948.328:    624  81  10  773
1477482948.329:    636  81  10  773
1477482948.331:    584  81  10  773
1477482948.345:    442  81  10  773
1477482948.345:    201  81  10  773
1477482948.346:    -50  81  10  773
1477482948.347:   -179  81  10  773
1477482948.347:   -143  81  10  773
1477482948.348:    -48  81  10  773
1477482948.349:    -40  81  10  773
1477482948.351:   -141  81  10  773
1477482948.351:   -233  81  10  773
1477482948.352:   -200  81  10  773
1477482948.353:    -67  81  10  773
1477482948.354:     56  81  10  773
1477482948.357:    108  81  10  773
1477482948.358:    128  81  10  773
1477482948.368:    168  81  10  773
1477482948.369:    210  81  10  773
1477482948.369:    198  81  10  773
1477482948.369:    115  81  10  773
1477482948.369:      5  81  10  773
1477482948.370:    -81  81  10  773
1477482948.371:   -142  81  10  773
1477482948.372:   -210  81  10  773
1477482948.375:   -275  81  10  773
1477482948.377:   -294  81  10  773
1477482948.388:   -227  81  10  773
1477482948.389:    -95  81  10  773
1477482948.389:     48  81  10  773
1477482948.410:    156  81  10  773
1477482948.411:    226  81  10  773
1477482948.412:    271  81  10  773
1477482948.415:    284  81  10  773
1477482948.416:    235  81  10  773
1477482948.439:    142  81  10  773
1477482948.439:     73  81  10  773
1477482948.440:     70  81  10  773
1477482948.440:     87  81  10  773
1477482948.440:     35  81  10  773
1477482948.442:   -110  81  10  773
1477482948.442:   -236  81  10  773
1477482948.442:   -209  81  10  773
1477482948.443:    -40  81  10  773
1477482948.443:    112  81  10  773
1477482948.443:    106  81  10  773
1477482948.443:    -16  81  10  773
1477482948.443:    -98  81  10  773
1477482948.443:    -63  81  10  773
1477482948.443:      6  81  10  773
1477482948.444:    -15  81  10  773
1477482948.444:   -130  81  10  773
1477482948.444:   -225  81  10  773
1477482948.444:   -214  81  10  773
1477482948.444:   -124  81  10  773
1477482948.444:    -32  81  10  773
1477482948.444:     65  81  10  773
1477482948.445:    216  81  10  773
1477482948.445:    416  81  10  773
1477482948.445:    564  81  10  773
1477482948.447:    571  81  10  773
1477482948.447:    470  81  10  773
1477482948.450:    393  81  10  773
1477482948.450:    417  81  10  773
1477482948.451:    459  81  10  773
1477482948.465:    393  81  10  773
1477482948.465:    218  81  10  773
1477482948.466:     85  81  10  773
1477482948.466:    104  81  10  773
1477482948.466:    229  81  10  773
1477482948.466:    325  81  10  773
1477482948.468:    318  81  10  773
1477482948.468:    250  81  10  773
1477482948.470:    192  81  10  773
1477482948.474:    158  81  10  773
1477482948.474:    144  81  10  773
1477482948.477:    186  81  10  773
1477482948.495:    295  81  10  773
1477482948.495:    389  81  10  773
1477482948.495:    345  81  10  773
1477482948.495:    178  81  10  773
1477482948.495:     47  81  10  773
1477482948.496:     83  81  10  773
1477482948.496:    219  81  10  773
1477482948.496:    252  81  10  773
1477482948.496:     92  81  10  773
1477482948.496:   -123  81  10  773
1477482948.497:   -188  81  10  773
1477482948.498:    -64  81  10  773
1477482948.503:    115  81  10  773
1477482948.503:    210  81  10  773
1477482948.506:    213  81  10  773
1477482948.507:    199  81  10  773
1477482948.537:    209  81  10  773
1477482948.537:    227  81  10  773
1477482948.537:    226  81  10  773
1477482948.538:    211  81  10  773
1477482948.538:    180  81  10  773
1477482948.539:    132  81  10  773
1477482948.539:     90  81  10  773
1477482948.539:    115  81  10  773
1477482948.539:    214  81  10  773
1477482948.539:    318  81  10  773
1477482948.594:    354  81  10  773
1477482948.594:    336  81  10  773
1477482948.595:    362  81  10  773
1477482948.595:    466  81  10  773
1477482948.595:    554  81  10  773
1477482948.595:    521  81  10  773
1477482948.595:    369  81  10  773
1477482948.595:    230  81  10  773
1477482948.595:    217  81  10  773
1477482948.596:    296  81  10  773
1477482948.596:    332  81  10  773
1477482948.596:    247  81  10  773
1477482948.596:    105  81  10  773
1477482948.596:     56  81  10  773
1477482948.597:    173  81  10  773
1477482948.597:    374  81  10  773
1477482948.597:    493  81  10  773
1477482948.597:    436  81  10  773
1477482948.597:    280  81  10  773
1477482948.597:    187  81  10  773
1477482948.598:    239  81  10  773
1477482948.598:    360  81  10  773
1477482948.598:    400  81  10  773
1477482948.598:    300  81  10  773
1477482948.598:    153  81  10  773
1477482948.599:     91  81  10  773
1477482948.599:    136  81  10  773
1477482948.599:    207  81  10  773
1477482948.600:    233  81  10  773
1477482948.601:    227  81  10  773
1477482948.601:    246  81  10  773
1477482948.602:    305  81  10  773
1477482948.602:    358  81  10  773
1477482948.603:    372  81  10  773
1477482948.603:    387  81  10  773
1477482948.603:    473  81  10  773
1477482948.603:    628  81  10  773
1477482948.603:    777  81  10  773
1477482948.604:    852  81  10  773
1477482948.604:    847  81  10  773
1477482948.607:    807  81  10  773
1477482948.611:    778  81  10  773
1477482948.626:    742  81  10  773
1477482948.627:    657  81  10  773
1477482948.627:    518  81  10  773
1477482948.627:    384  81  10  773
1477482948.627:    329  81  10  773
1477482948.627:    364  81  10  773
1477482948.627:    434  81  10  773
1477482948.627:    475  81  10  773
1477482948.628:    474  81  10  773
1477482948.628:    476  81  10  773
1477482948.629:    503  81  10  773
1477482948.632:    510  81  10  773
1477482948.635:    450  81  10  773
1477482948.639:    333  81  10  773
1477482948.639:    212  81  10  773
1477482948.641:    124  81  10  773
1477482948.644:     56  81  10  773
1477482948.645:    -12  81  10  773
1477482948.671:    -68  81  10  773
1477482948.672:    -98  81  10  773
1477482948.672:   -132  81  10  773
1477482948.673:   -198  81  10  773
1477482948.673:   -270  81  10  773
1477482948.673:   -279  81  10  773
1477482948.674:   -208  81  10  773
1477482948.678:   -143  81  10  773
1477482948.679:   -154  81  10  773
1477482948.679:   -206  81  10  773
1477482948.679:   -212  81  10  773
1477482948.680:   -174  81  10  773
1477482948.680:   -204  81  10  773
1477482948.680:   -348  81  10  773
1477482948.680:   -499  81  10  773
1477482948.681:   -506  81  10  773
1477482948.681:   -384  81  10  773
1477482948.682:   -294  81  10  773
1477482948.682:   -335  81  10  773
1477482948.683:   -426  81  10  773
1477482948.698:   -436  81  10  773
1477482948.698:   -361  81  10  773
1477482948.698:   -294  81  10  773
1477482948.698:   -251  81  10  773
1477482948.699:   -143  81  10  773
1477482948.700:     45  81  10  773
1477482948.700:    161  81  10  773
1477482948.701:     50  81  10  773
1477482948.701:   -219  81  10  773
1477482948.704:   -406  81  10  773
1477482948.707:   -374  81  10  773
1477482948.708:   -252  81  10  773
1477482948.719:   -282  81  10  773
1477482948.719:   -517  81  10  773
1477482948.720:   -769  81  10  773
1477482948.720:   -809  81  10  773
1477482948.720:   -618  81  10  773
1477482948.722:   -376  81  10  773
1477482948.722:   -251  81  10  773
1477482948.724:   -246  81  10  773
1477482948.725:   -257  81  10  773
1477482948.726:   -222  81  10  773
1477482948.729:   -183  81  10  773
1477482948.731:   -202  81  10  773
1477482948.737:   -263  81  10  773
1477482948.738:   -271  81  10  773
1477482948.746:   -184  81  10  773
1477482948.746:    -93  81  10  773
1477482948.772:   -136  81  10  773
1477482948.773:   -319  81  10  773
1477482948.773:   -490  81  10  773
1477482948.773:   -482  81  10  773
1477482948.773:   -320  81  10  773
1477482948.774:   -194  81  10  773
1477482948.778:   -249  81  10  773
1477482948.779:   -415  81  10  773
1477482948.779:   -511  81  10  773
1477482948.780:   -474  81  10  773
1477482948.781:   -427  81  10  773
1477482948.781:   -493  81  10  773
1477482948.782:   -614  81  10  773
1477482948.783:   -619  81  10  773
1477482948.796:   -433  81  10  773
1477482948.796:   -175  81  10  773
1477482948.796:      0  81  10  773
1477482948.797:     97  81  10  773
1477482948.797:    253  81  10  773
1477482948.797:    543  81  10  773
1477482948.797:    848  81  10  773
1477482948.797:   1016  81  10  773
1477482948.798:   1017  81  10  773
1477482948.798:    932  81  10  773
1477482948.798:    797  81  10  773
1477482948.799:    545  81  10  773
1477482948.799:    115  81  10  773
1477482948.800:   -442  81  10  773
1477482948.801:   -961  81  10  773
1477482948.801:  -1323  81  10  773
1477482948.801:  -1527  81  10  773
1477482948.801:  -1650  81  10  773
1477482948.804:  -1730  81  10  773
1477482948.805:  -1729  81  10  773
1477482948.809:  -1585  81  10  773
1477482948.810:  -1294  81  10  773
1477482948.819:   -950  81  10  773
1477482948.819:   -701  81  10  773
1477482948.819:   -597  81  10  773
1477482948.819:   -532  81  10  773
1477482948.820:   -372  81  10  773
1477482948.823:   -120  81  10  773
1477482948.823:     72  81  10  773
1477482948.826:     87  81  10  773
1477482948.827:     12  81  10  773
1477482948.830:     31  81  10  773
1477482948.831:    168  81  10  773
1477482948.833:    244  81  10  773
1477482948.837:    135  81  10  773
1477482948.837:    -38  81  10  773
1477482948.839:    -56  81  10  773
