timestamp: ADC HeartRate4sAverage HeartRate30sAverage HRV8sAverage
1477471368.777:  -4893  81  10  736
1477471368.784:  -4915  81  10  736
1477471368.784:  -4977  81  10  736
1477471368.784:  -5041  81  10  736
1477471368.785:  -5078  81  10  736
1477471368.785:  -5094  81  10  736
1477471368.785:  -5110  81  10  736
1477471368.785:  -5132  81  10  736
1477471368.785:  -5144  81  10  736
1477471368.786:  -5129  81  10  736
1477471368.786:  -5100  81  10  736
1477471368.786:  -5098  81  10  736
1477471368.786:  -5144  81  10  736
1477471368.787:  -5212  81  10  736
1477471368.787:  -5260  81  10  736
1477471368.787:  -5271  81  10  736
1477471368.790:  -5260  81  10  736
1477471368.792:  -5241  81  10  736
1477471368.796:  -5199  81  10  736
1477471368.806:  -5106  81  10  736
1477471368.863:  -4968  81  10  736
1477471368.863:  -4835  81  10  736
1477471368.863:  -4746  81  10  736
1477471368.864:  -4685  81  10  736
1477471368.864:  -4606  81  10  736
1477471368.874:  -4487  81  10  736
1477471368.875:  -4354  81  10  736
1477471368.875:  -4241  81  10  736
1477471368.875:  -4145  81  10  736
1477471368.875:  -4043  81  10  736
1477471368.875:  -3924  81  10  736
1477471368.875:  -3823  81  10  736
1477471368.875:  -3777  81  10  736
1477471368.875:  -3780  81  10  736
1477471368.876:  -3797  81  10  736
1477471368.876:  -3801  81  10  736
1477471368.876:  -3794  81  10  736
1477471368.876:  -3786  81  10  736
1477471368.876:  -3775  81  10  736
1477471368.876:  -3749  81  10  736
1477471368.876:  -3708  81  10  736
1477471368.877:  -3673  81  10  736
1477471368.877:  -3667  81  10  736
1477471368.877:  -3689  81  10  736
1477471368.877:  -3720  81  10  736
1477471368.877:  -3741  81  10  736
1477471368.877:  -3743  81  10  736
1477471368.877:  -3724  81  10  736
1477471368.877:  -3692  81  10  736
1477471368.878:  -3660  81  10  736
1477471368.878:  -3634  81  10  736
1477471368.878:  -3620  81  10  736
1477471368.878:  -3625  81  10  736
1477471368.878:  -3652  81  10  736
1477471368.878:  -3695  81  10  736
1477471368.878:  -3742  81  10  736
1477471368.879:  -3765  81  10  736
1477471368.879:  -3752  81  10  736
1477471368.879:  -3716  81  10  736
1477471368.879:  -3681  81  10  736
1477471368.879:  -3654  81  10  736
1477471368.879:  -3623  81  10  736
1477471368.880:  -3583  81  10  736
1477471368.883:  -3554  81  10  736
1477471368.884:  -3554  81  10  736
1477471368.887:  -3576  81  10  736
1477471368.889:  -3581  81  10  736
1477471368.893:  -3548  81  10  736
1477471368.893:  -3497  81  10  736
1477471368.894:  -3465  81  10  736
1477471368.897:  -3458  81  10  736
1477471368.913:  -3447  81  10  736
1477471368.913:  -3416  81  10  736
1477471368.913:  -3389  81  10  736
1477471368.914:  -3394  81  10  736
1477471368.914:  -3423  81  10  736
1477471368.914:  -3424  81  10  736
1477471368.914:  -3361  81  10  736
1477471368.914:  -3241  81  10  736
1477471368.915:  -3107  81  10  736
1477471368.915:  -2990  81  10  736
1477471368.918:  -2896  81  10  736
1477471368.919:  -2824  81  10  736
1477471368.923:  -2787  81  10  736
1477471368.923:  -2788  81  10  736
1477471368.925:  -2815  81  10  736
1477471368.926:  -2851  81  10  736
1477471368.934:  -2884  81  10  736
1477471368.934:  -2912  81  10  736
1477471368.934:  -2924  81  10  736
1477471368.935:  -2911  81  10  736
1477471368.937:  -2881  81  10  736
1477471368.942:  -2867  81  10  736
1477471368.952:  -2901  81  10  736
1477471368.953:  -2969  81  10  736
1477471368.953:  -3028  81  10  736
1477471368.953:  -3058  81  10  736
1477471368.953:  -3074  81  10  736
1477471368.953:  -3105  81  10  736
1477471368.953:  -3151  81  10  736
1477471368.955:  -3181  81  10  736
1477471368.956:  -3171  81  10  736
1477471368.959:  -3142  81  10  736
1477471368.960:  -3142  81  10  736
1477471368.964:  -3193  81  10  736
1477471368.972:  -3269  81  10  736
1477471368.972:  -3334  81  10  736
1477471368.972:  -3369  81  10  736
1477471368.973:  -3395  81  10  736
1477471368.974:  -3426  81  10  736
1477471368.975:  -3456  81  10  736
1477471368.977:  -3466  81  10  736
1477471368.978:  -3463  81  10  736
1477471368.983:  -3484  81  10  736
1477471368.983:  -3553  81  10  736
1477471368.991:  -3638  81  10  736
1477471368.991:  -3693  81  10  736
1477471368.991:  -3700  81  10  736
1477471368.992:  -3686  81  10  736
1477471368.992:  -3681  81  10  736
1477471368.994:  -3684  81  10  736
1477471368.996:  -3667  81  10  736
1477471368.998:  -3622  81  10  736
1477471369.004:  -3589  81  10  736
1477471369.004:  -3610  81  10  736
1477471369.009:  -3672  81  10  736
1477471369.010:  -3721  81  10  736
1477471369.010:  -3704  81  10  736
1477471369.012:  -3606  81  10  736
1477471369.015:  -3443  81  10  736
1477471369.015:  -3243  81  10  736
1477471369.017:  -3011  81  10  736
1477471369.017:  -2747  81  10  736
1477471369.028:  -2452  81  10  736
1477471369.028:  -2149  81  10  736
1477471369.028:  -1883  81  10  736
1477471369.029:  -1702  81  10  736
1477471369.029:  -1594  81  10  736
1477471369.030:  -1470  81  10  736
1477471369.031:  -1254  81  10  736
1477471369.032:  -1006  81  10  736
1477471369.038:   -915  81  10  736
1477471369.039:  -1127  81  10  736
1477471369.045:  -1577  81  10  736
1477471369.045:  -2066  81  10  736
1477471369.045:  -2488  81  10  736
1477471369.046:  -2965  81  10  736
1477471369.046:  -3681  81  10  736
1477471369.049:  -4606  81  10  736
1477471369.051:  -5460  81  10  736
1477471369.058:  -5976  81  10  736
1477471369.059:  -6143  81  10  736
1477471369.060:  -6166  81  10  736
1477471369.061:  -6225  81  10  736
1477471369.062:  -6312  81  10  736
1477471369.064:  -6305  81  10  736
1477471369.065:  -6136  81  10  736
1477471369.082:  -5839  81  10  736
1477471369.082:  -5481  81  10  736
1477471369.082:  -5117  81  10  736
1477471369.082:  -4787  81  10  736
1477471369.083:  -4527  81  10  736
1477471369.083:  -4335  81  10  736
1477471369.084:  -4163  81  10  736
1477471369.084:  -3972  81  10  736
1477471369.084:  -3782  81  10  736
1477471369.085:  -3649  81  10  736
1477471369.086:  -3607  81  10  736
1477471369.089:  -3634  81  10  736
1477471369.090:  -3688  81  10  736
1477471369.092:  -3741  81  10  736
1477471369.102:  -3782  81  10  736
1477471369.103:  -3795  81  10  736
1477471369.103:  -3781  81  10  736
1477471369.103:  -3773  81  10  736
1477471369.104:  -3800  81  10  736
1477471369.104:  -3837  81  10  736
1477471369.107:  -3825  81  10  736
1477471369.111:  -3736  81  10  736
1477471369.121:  -3614  81  10  736
1477471369.121:  -3532  81  10  736
1477471369.122:  -3525  81  10  736
1477471369.122:  -3560  81  10  736
1477471369.122:  -3597  81  10  736
1477471369.122:  -3635  81  10  736
1477471369.125:  -3687  81  10  736
1477471369.125:  -3734  81  10  736
1477471369.127:  -3731  81  10  736
1477471369.128:  -3658  81  10  736
1477471369.129:  -3551  81  10  736
1477471369.132:  -3463  81  10  736
1477471369.141:  -3413  81  10  736
1477471369.141:  -3376  81  10  736
1477471369.142:  -3330  81  10  736
1477471369.143:  -3295  81  10  736
1477471369.144:  -3302  81  10  736
1477471369.144:  -3334  81  10  736
1477471369.145:  -3341  81  10  736
1477471369.148:  -3289  81  10  736
1477471369.160:  -3201  81  10  736
1477471369.160:  -3122  81  10  736
1477471369.161:  -3063  81  10  736
1477471369.162:  -2988  81  10  736
1477471369.163:  -2873  81  10  736
1477471369.164:  -2749  81  10  736
1477471369.164:  -2672  81  10  736
1477471369.166:  -2652  81  10  736
1477471369.167:  -2641  81  10  736
1477471369.168:  -2596  81  10  736
1477471369.171:  -2524  81  10  736
1477471369.171:  -2461  81  10  736
1477471369.179:  -2417  81  10  736
1477471369.180:  -2358  81  10  736
1477471369.180:  -2261  81  10  736
1477471369.180:  -2155  81  10  736
1477471369.182:  -2098  81  10  736
1477471369.183:  -2102  81  10  736
1477471369.184:  -2115  81  10  736
1477471369.187:  -2090  81  10  736
1477471369.189:  -2030  81  10  736
1477471369.194:  -1978  81  10  736
1477471369.204:  -1958  81  10  736
1477471369.204:  -1951  81  10  736
1477471369.204:  -1930  81  10  736
1477471369.204:  -1901  81  10  736
1477471369.204:  -1901  81  10  736
1477471369.204:  -1940  81  10  736
1477471369.208:  -1989  81  10  736
1477471369.208:  -2014  81  10  736
1477471369.210:  -2011  81  10  736
1477471369.211:  -1999  81  10  736
1477471369.212:  -1986  81  10  736
1477471369.214:  -1954  81  10  736
1477471369.217:  -1892  81  10  736
1477471369.221:  -1813  81  10  736
1477471369.227:  -1755  81  10  736
1477471369.227:  -1735  81  10  736
1477471369.227:  -1735  81  10  736
1477471369.228:  -1729  81  10  736
1477471369.228:  -1706  81  10  736
1477471369.231:  -1677  81  10  735
1477471369.235:  -1649  81  10  735
1477471369.235:  -1615  81  10  735
1477471369.237:  -1570  81  10  735
1477471369.238:  -1525  81  10  735
1477471369.248:  -1512  81  10  735
1477471369.248:  -1550  81  10  735
1477471369.248:  -1617  81  10  735
1477471369.249:  -1678  81  10  735
1477471369.249:  -1718  81  10  735
1477471369.251:  -1746  81  10  735
1477471369.254:  -1782  81  10  735
1477471369.254:  -1820  81  10  735
1477471369.257:  -1846  81  10  735
1477471369.258:  -1860  81  10  735
1477471369.262:  -1887  81  10  735
1477471369.262:  -1957  81  10  735
1477471369.272:  -2060  81  10  735
1477471369.272:  -2164  81  10  735
1477471369.272:  -2252  81  10  735
1477471369.272:  -2332  81  10  735
1477471369.272:  -2413  81  10  735
1477471369.274:  -2489  81  10  735
1477471369.276:  -2549  81  10  735
1477471369.277:  -2599  81  10  735
1477471369.282:  -2673  81  10  735
1477471369.282:  -2796  81  10  735
1477471369.292:  -2951  81  10  735
1477471369.293:  -3101  81  10  735
1477471369.293:  -3231  81  10  735
1477471369.293:  -3357  81  10  735
1477471369.293:  -3491  81  10  735
1477471369.295:  -3618  81  10  735
1477471369.295:  -3716  81  10  735
1477471369.297:  -3786  81  10  735
1477471369.300:  -3870  81  10  735
1477471369.301:  -4004  81  10  735
1477471369.304:  -4177  81  10  735
1477471369.304:  -4349  81  10  735
1477471369.313:  -4496  81  10  735
1477471369.313:  -4630  81  10  735
1477471369.313:  -4774  81  10  735
1477471369.314:  -4923  81  10  735
1477471369.314:  -5044  81  10  735
1477471369.318:  -5122  81  10  735
1477471369.318:  -5186  81  10  735
1477471369.323:  -5286  81  10  735
1477471369.323:  -5440  81  10  735
1477471369.325:  -5610  81  10  735
1477471369.353:  -5746  81  10  735
1477471369.354:  -5827  81  10  735
1477471369.354:  -5877  81  10  735
1477471369.354:  -5927  81  10  735
1477471369.354:  -5979  81  10  735
1477471369.355:  -6010  81  10  735
1477471369.355:  -6012  81  10  735
1477471369.355:  -6007  81  10  735
1477471369.355:  -6026  81  10  735
1477471369.356:  -6066  81  10  735
1477471369.356:  -6096  81  10  735
1477471369.357:  -6092  81  10  735
1477471369.357:  -6059  81  10  735
1477471369.357:  -6017  81  10  735
1477471369.358:  -5969  81  10  735
1477471369.359:  -5901  81  10  735
1477471369.359:  -5806  81  10  735
1477471369.360:  -5712  81  10  735
1477471369.364:  -5656  81  10  735
1477471369.364:  -5639  81  10  735
1477471369.366:  -5629  81  10  735
1477471369.367:  -5597  81  10  735
1477471369.370:  -5546  81  10  735
1477471369.372:  -5499  81  10  735
1477471369.374:  -5467  81  10  735
1477471369.379:  -5436  81  10  735
1477471369.396:  -5395  81  10  735
1477471369.396:  -5357  81  10  735
1477471369.397:  -5351  81  10  735
1477471369.397:  -5385  81  10  735
1477471369.397:  -5433  81  10  735
1477471369.398:  -5464  81  10  735
1477471369.398:  -5455  81  10  735
1477471369.398:  -5408  81  10  735
1477471369.398:  -5334  81  10  735
1477471369.399:  -5245  81  10  735
1477471369.399:  -5151  81  10  735
1477471369.400:  -5067  81  10  735
1477471369.401:  -5007  81  10  735
1477471369.429:  -4971  81  10  735
1477471369.429:  -4946  81  10  735
1477471369.430:  -4931  81  10  735
1477471369.432:  -4929  81  10  735
1477471369.432:  -4950  81  10  735
1477471369.433:  -4986  81  10  735
1477471369.434:  -5017  81  10  735
1477471369.434:  -5032  81  10  735
1477471369.434:  -5053  81  10  735
1477471369.434:  -5113  81  10  735
1477471369.435:  -5224  81  10  735
1477471369.435:  -5354  81  10  735
1477471369.435:  -5456  81  10  735
1477471369.436:  -5504  81  10  735
1477471369.436:  -5511  81  10  735
1477471369.436:  -5498  81  10  735
1477471369.437:  -5467  81  10  735
1477471369.437:  -5404  81  10  735
1477471369.438:  -5312  81  10  735
1477471369.439:  -5220  81  10  735
1477471369.446:  -5149  81  10  735
1477471369.460:  -5089  81  10  735
1477471369.460:  -5015  81  10  735
1477471369.462:  -4920  81  10  735
1477471369.462:  -4830  81  10  735
1477471369.462:  -4767  81  10  735
1477471369.463:  -4726  81  10  735
1477471369.463:  -4678  81  10  735
1477471369.463:  -4624  81  10  735
1477471369.463:  -4606  81  10  735
1477471369.463:  -4659  81  10  735
1477471369.464:  -4760  81  10  735
1477471369.465:  -4849  81  10  735
1477471369.467:  -4889  81  10  735
1477471369.473:  -4898  81  10  735
1477471369.474:  -4911  81  10  735
1477471369.474:  -4922  81  10  735
1477471369.475:  -4897  81  10  735
1477471369.478:  -4818  81  10  735
1477471369.479:  -4736  81  10  735
1477471369.480:  -4719  81  10  735
1477471369.496:  -4775  81  10  735
1477471369.496:  -4841  81  10  735
1477471369.496:  -4859  81  10  735
1477471369.496:  -4830  81  10  735
1477471369.497:  -4806  81  10  735
1477471369.497:  -4813  81  10  735
1477471369.497:  -4829  81  10  735
1477471369.498:  -4815  81  10  735
1477471369.499:  -4783  81  10  735
1477471369.500:  -4773  81  10  735
1477471369.504:  -4799  81  10  735
1477471369.505:  -4831  81  10  735
1477471369.507:  -4833  81  10  735
1477471369.508:  -4810  81  10  735
1477471369.513:  -4792  81  10  735
1477471369.514:  -4791  81  10  735
1477471369.515:  -4787  81  10  735
1477471369.517:  -4760  81  10  735
1477471369.519:  -4729  81  10  735
1477471369.523:  -4742  81  10  735
1477471369.538:  -4809  81  10  735
1477471369.605:  -4893  81  10  735
1477471369.605:  -4955  81  10  735
1477471369.605:  -4991  81  10  735
1477471369.605:  -5028  81  10  735
1477471369.605:  -5075  81  10  735
1477471369.606:  -5109  81  10  735
1477471369.606:  -5110  81  10  735
1477471369.606:  -5096  81  10  735
1477471369.606:  -5115  81  10  735
1477471369.606:  -5183  81  10  735
1477471369.607:  -5259  81  10  735
1477471369.607:  -5287  81  10  735
1477471369.608:  -5261  81  10  735
1477471369.618:  -5219  81  10  735
1477471369.619:  -5189  81  10  735
1477471369.620:  -5150  81  10  735
1477471369.620:  -5068  81  10  735
1477471369.620:  -4957  81  10  735
1477471369.620:  -4885  81  10  735
1477471369.620:  -4890  81  10  735
1477471369.620:  -4919  81  10  735
1477471369.620:  -4897  81  10  735
1477471369.621:  -4832  81  10  735
1477471369.621:  -4836  81  10  735
1477471369.621:  -4994  81  10  735
1477471369.621:  -5254  81  10  735
1477471369.621:  -5452  81  10  735
1477471369.621:  -5492  81  10  735
1477471369.622:  -5445  81  10  735
1477471369.622:  -5461  81  10  735
1477471369.622:  -5585  81  10  735
1477471369.622:  -5714  81  10  735
1477471369.622:  -5714  81  10  735
1477471369.622:  -5565  81  10  735
1477471369.622:  -5359  81  10  735
1477471369.623:  -5202  81  10  735
1477471369.623:  -5127  81  10  735
1477471369.623:  -5102  81  10  735
1477471369.623:  -5101  81  10  735
1477471369.623:  -5132  81  10  735
1477471369.623:  -5206  81  10  735
1477471369.623:  -5306  81  10  735
1477471369.624:  -5397  81  10  735
1477471369.624:  -5448  81  10  735
1477471369.624:  -5469  81  10  735
1477471369.624:  -5482  81  10  735
1477471369.624:  -5487  81  10  735
1477471369.624:  -5450  81  10  735
1477471369.624:  -5353  81  10  735
1477471369.625:  -5247  81  10  735
1477471369.625:  -5245  81  10  735
1477471369.629:  -5417  81  10  735
1477471369.632:  -5717  81  10  735
1477471369.639:  -6001  81  10  735
1477471369.640:  -6166  81  10  735
1477471369.640:  -6235  81  10  735
1477471369.640:  -6302  81  10  735
1477471369.640:  -6410  81  10  735
1477471369.640:  -6511  81  10  735
1477471369.640:  -6545  81  10  735
1477471369.642:  -6502  81  10  735
1477471369.644:  -6418  81  10  735
1477471369.647:  -6327  81  10  735
1477471369.651:  -6232  81  10  735
1477471369.652:  -6139  81  10  735
1477471369.659:  -6063  81  10  735
1477471369.660:  -6010  81  10  735
1477471369.663:  -5957  81  10  735
1477471369.673:  -5891  81  10  735
1477471369.678:  -5843  81  10  735
1477471369.678:  -5858  81  10  735
1477471369.678:  -5933  81  10  735
1477471369.678:  -6001  81  10  735
1477471369.679:  -5996  81  10  735
1477471369.679:  -5908  81  10  735
1477471369.679:  -5776  81  10  735
1477471369.679:  -5639  81  10  735
1477471369.680:  -5512  81  10  735
1477471369.681:  -5402  81  10  735
1477471369.681:  -5321  81  10  735
1477471369.682:  -5281  81  10  735
1477471369.683:  -5275  81  10  735
1477471369.685:  -5289  81  10  735
1477471369.688:  -5315  81  10  735
1477471369.692:  -5339  81  10  735
1477471369.702:  -5334  81  10  735
1477471369.703:  -5289  81  10  735
1477471369.703:  -5235  81  10  735
1477471369.703:  -5233  81  10  735
1477471369.704:  -5322  81  10  735
1477471369.704:  -5477  81  10  735
1477471369.708:  -5625  81  10  735
1477471369.709:  -5720  81  10  735
1477471369.720:  -5785  81  10  735
1477471369.721:  -5865  81  10  735
1477471369.721:  -5961  81  10  735
1477471369.722:  -6028  81  10  735
1477471369.723:  -6023  81  10  735
1477471369.723:  -5960  81  10  735
1477471369.724:  -5895  81  10  735
1477471369.724:  -5875  81  10  735
1477471369.725:  -5898  81  10  735
1477471369.727:  -5918  81  10  735
1477471369.739:  -5903  81  10  735
1477471369.739:  -5869  81  10  735
1477471369.740:  -5851  81  10  735
1477471369.740:  -5857  81  10  735
1477471369.741:  -5856  81  10  735
1477471369.741:  -5826  81  10  735
1477471369.743:  -5780  81  10  735
1477471369.743:  -5755  81  10  735
1477471369.743:  -5749  81  10  735
1477471369.748:  -5694  81  10  735
1477471369.756:  -5525  81  10  735
1477471369.757:  -5255  81  10  735
1477471369.758:  -4967  81  10  735
1477471369.758:  -4713  81  10  735
1477471369.759:  -4455  81  10  735
1477471369.760:  -4121  81  10  735
1477471369.762:  -3736  81  10  735
1477471369.764:  -3420  81  10  735
1477471369.766:  -3244  81  10  735
1477471369.767:  -3117  81  10  735
1477471369.768:  -2894  81  10  735
1477471369.769:  -2579  81  10  735
1477471369.770:  -2379  81  10  735
1477471369.775:  -2484  81  10  735
1477471369.775:  -2841  81  10  735
1477471369.776:  -3221  81  10  735
1477471369.790:  -3518  81  10  735
1477471369.791:  -3905  81  10  735
1477471369.792:  -4629  81  10  735
1477471369.792:  -5664  81  10  735
1477471369.793:  -6671  81  10  735
1477471369.793:  -7321  81  10  735
1477471369.793:  -7598  81  10  735
1477471369.794:  -7749  81  10  735
1477471369.794:  -7976  81  10  735
1477471369.796:  -8229  81  10  735
1477471369.800:  -8326  81  10  735
1477471369.801:  -8185  81  10  735
1477471369.809:  -7877  81  10  735
1477471369.809:  -7513  81  10  735
1477471369.809:  -7151  81  10  735
1477471369.810:  -6812  81  10  735
1477471369.812:  -6518  81  10  735
1477471369.813:  -6281  81  10  735
1477471369.816:  -6055  81  10  735
1477471369.817:  -5777  81  10  735
1477471369.829:  -5454  81  10  735
1477471369.830:  -5197  81  10  735
1477471369.832:  -5114  81  10  735
1477471369.832:  -5202  81  10  735
1477471369.833:  -5352  81  10  735
1477471369.834:  -5460  81  10  735
1477471369.835:  -5493  81  10  735
1477471369.835:  -5482  81  10  735
1477471369.836:  -5456  81  10  735
1477471369.836:  -5404  81  10  735
1477471369.869:  -5300  81  10  735
1477471369.869:  -5136  81  10  735
1477471369.869:  -4938  81  10  735
1477471369.869:  -4742  81  10  735
1477471369.870:  -4569  81  10  735
1477471369.870:  -4435  81  10  735
1477471369.870:  -4346  81  10  735
1477471369.870:  -4305  81  10  735
1477471369.871:  -4310  81  10  735
1477471369.871:  -4341  81  10  735
1477471369.871:  -4363  81  10  735
1477471369.871:  -4350  81  10  735
1477471369.874:  -4302  81  10  735
1477471369.874:  -4242  81  10  735
1477471369.875:  -4190  81  10  735
1477471369.875:  -4155  81  10  735
1477471369.875:  -4131  81  10  735
1477471369.875:  -4111  81  10  735
1477471369.876:  -4093  81  10  735
1477471369.876:  -4073  81  10  735
1477471369.879:  -4040  81  10  735
1477471369.880:  -3993  81  10  735
1477471369.882:  -3951  81  10  735
1477471369.888:  -3947  81  10  735
1477471369.897:  -3989  81  10  735
1477471369.898:  -4053  81  10  735
1477471369.899:  -4104  81  10  735
1477471369.900:  -4126  81  10  735
1477471369.901:  -4122  81  10  735
1477471369.904:  -4091  81  10  735
1477471369.915:  -4026  81  10  735
1477471369.916:  -3937  81  10  735
1477471369.916:  -3863  81  10  735
1477471369.916:  -3844  81  10  735
1477471369.916:  -3865  81  10  735
1477471369.917:  -3877  81  10  735
1477471369.917:  -3847  81  10  735
1477471369.917:  -3797  81  10  735
1477471369.917:  -3766  81  10  735
1477471369.917:  -3752  81  10  735
1477471369.918:  -3708  81  10  735
1477471369.918:  -3603  81  10  735
1477471369.921:  -3474  81  10  735
1477471369.921:  -3395  81  10  735
1477471369.923:  -3381  81  10  735
1477471369.926:  -3373  81  10  735
1477471369.927:  -3308  81  10  735
1477471369.931:  -3192  81  10  735
1477471369.931:  -3088  81  10  735
1477471369.933:  -3035  81  10  735
1477471369.935:  -3005  81  10  735
1477471369.936:  -2938  81  10  735
1477471369.946:  -2833  81  10  735
1477471369.946:  -2750  81  10  735
1477471369.946:  -2737  81  10  735
1477471369.946:  -2767  81  10  735
1477471369.948:  -2774  81  10  735
1477471369.949:  -2730  81  10  735
1477471369.950:  -2667  81  10  735
1477471369.954:  -2631  81  10  735
1477471369.955:  -2619  81  10  735
1477471369.958:  -2584  81  10  735
1477471369.966:  -2515  81  10  735
1477471369.966:  -2465  81  10  735
1477471369.967:  -2486  81  10  735
1477471369.967:  -2564  81  10  735
1477471369.967:  -2632  81  10  735
1477471369.970:  -2647  81  10  735
1477471369.972:  -2635  81  10  735
1477471369.972:  -2648  81  10  735
1477471369.974:  -2696  81  10  735
1477471369.975:  -2740  81  10  735
1477471369.980:  -2750  81  10  735
1477471369.981:  -2753  81  10  735
1477471369.990:  -2798  81  10  735
1477471369.990:  -2888  81  10  733
1477471369.990:  -2978  81  10  733
1477471369.990:  -3023  81  10  733
1477471369.990:  -3024  81  10  733
1477471369.992:  -3018  81  10  733
1477471369.996:  -3032  81  10  733
1477471369.998:  -3054  81  10  733
1477471370.000:  -3064  81  10  733
1477471370.000:  -3072  81  10  733
1477471370.010:  -3107  81  10  733
1477471370.010:  -3179  81  10  733
1477471370.011:  -3272  81  10  733
1477471370.011:  -3357  81  10  733
1477471370.011:  -3426  81  10  733
1477471370.012:  -3488  81  10  733
1477471370.013:  -3551  81  10  733
1477471370.016:  -3613  81  10  733
1477471370.018:  -3669  81  10  733
1477471370.020:  -3733  81  10  733
1477471370.021:  -3830  81  10  733
1477471370.023:  -3966  81  10  733
1477471370.028:  -4120  81  10  733
1477471370.029:  -4265  81  10  733
1477471370.030:  -4396  81  10  733
1477471370.031:  -4522  81  10  733
1477471370.033:  -4652  81  10  733
1477471370.034:  -4777  81  10  733
1477471370.037:  -4888  81  10  733
1477471370.041:  -4996  81  10  733
1477471370.051:  -5127  81  10  733
1477471370.052:  -5283  81  10  733
1477471370.053:  -5435  81  10  733
1477471370.053:  -5549  81  10  733
1477471370.054:  -5621  81  10  733
1477471370.054:  -5676  81  10  733
1477471370.055:  -5731  81  10  733
1477471370.055:  -5777  81  10  733
1477471370.059:  -5801  81  10  733
1477471370.060:  -5824  81  10  733
1477471370.071:  -5886  81  10  733
1477471370.071:  -5990  81  10  733
1477471370.071:  -6088  81  10  733
1477471370.071:  -6133  81  10  733
1477471370.072:  -6132  81  10  733
1477471370.072:  -6133  81  10  733
1477471370.073:  -6155  81  10  733
1477471370.074:  -6171  81  10  733
1477471370.075:  -6137  81  10  733
1477471370.083:  -6063  81  10  733
1477471370.083:  -6009  81  10  733
1477471370.084:  -6016  81  10  733
1477471370.086:  -6060  81  10  733
1477471370.088:  -6093  81  10  733
1477471370.089:  -6090  81  10  733
1477471370.089:  -6061  81  10  733
1477471370.092:  -6017  81  10  733
1477471370.096:  -5958  81  10  733
1477471370.111:  -5875  81  10  733
1477471370.111:  -5791  81  10  733
1477471370.112:  -5737  81  10  733
1477471370.112:  -5725  81  10  733
1477471370.112:  -5724  81  10  733
1477471370.113:  -5704  81  10  733
1477471370.113:  -5665  81  10  733
1477471370.114:  -5627  81  10  733
1477471370.115:  -5602  81  10  733
1477471370.116:  -5588  81  10  733
1477471370.119:  -5569  81  10  733
1477471370.120:  -5543  81  10  733
1477471370.129:  -5525  81  10  733
1477471370.130:  -5531  81  10  733
1477471370.130:  -5552  81  10  733
1477471370.131:  -5566  81  10  733
1477471370.131:  -5552  81  10  733
1477471370.132:  -5508  81  10  733
1477471370.133:  -5442  81  10  733
1477471370.134:  -5355  81  10  733
1477471370.136:  -5246  81  10  733
1477471370.140:  -5119  81  10  733
1477471370.143:  -5008  81  10  733
1477471370.145:  -4952  81  10  733
1477471370.146:  -4963  81  10  733
1477471370.147:  -5010  81  10  733
1477471370.165:  -5057  81  10  733
1477471370.166:  -5091  81  10  733
1477471370.166:  -5129  81  10  733
1477471370.167:  -5192  81  10  733
1477471370.185:  -5269  81  10  733
1477471370.185:  -5332  81  10  733
1477471370.185:  -5371  81  10  733
1477471370.186:  -5408  81  10  733
1477471370.186:  -5465  81  10  733
1477471370.186:  -5532  81  10  733
1477471370.187:  -5572  81  10  733
1477471370.187:  -5556  81  10  733
1477471370.187:  -5489  81  10  733
1477471370.187:  -5405  81  10  733
1477471370.187:  -5337  81  10  733
1477471370.187:  -5285  81  10  733
1477471370.187:  -5234  81  10  733
1477471370.188:  -5179  81  10  733
1477471370.188:  -5136  81  10  733
1477471370.188:  -5122  81  10  733
1477471370.188:  -5137  81  10  733
1477471370.191:  -5158  81  10  733
1477471370.192:  -5155  81  10  733
1477471370.193:  -5114  81  10  733
1477471370.194:  -5048  81  10  733
1477471370.197:  -4984  81  10  733
1477471370.198:  -4943  81  10  733
1477471370.200:  -4932  81  10  733
1477471370.203:  -4939  81  10  733
1477471370.204:  -4946  81  10  733
1477471370.205:  -4948  81  10  733
1477471370.210:  -4952  81  10  733
1477471370.220:  -4961  81  10  733
1477471370.221:  -4965  81  10  733
1477471370.221:  -4945  81  10  733
1477471370.222:  -4896  81  10  733
1477471370.222:  -4834  81  10  733
1477471370.222:  -4798  81  10  733
1477471370.222:  -4807  81  10  733
1477471370.223:  -4839  81  10  733
1477471370.229:  -4858  81  10  733
1477471370.229:  -4846  81  10  733
1477471370.233:  -4822  81  10  733
1477471370.233:  -4809  81  10  733
1477471370.234:  -4810  81  10  733
1477471370.237:  -4802  81  10  733
1477471370.238:  -4771  81  10  733
1477471370.239:  -4736  81  10  733
1477471370.242:  -4734  81  10  733
1477471370.247:  -4770  81  10  733
1477471370.260:  -4818  81  10  733
1477471370.261:  -4843  81  10  733
1477471370.262:  -4838  81  10  733
1477471370.263:  -4824  81  10  733
1477471370.264:  -4823  81  10  733
1477471370.265:  -4831  81  10  733
1477471370.266:  -4832  81  10  733
1477471370.267:  -4831  81  10  733
1477471370.267:  -4856  81  10  733
1477471370.271:  -4924  81  10  733
1477471370.280:  -5018  81  10  733
1477471370.281:  -5105  81  10  733
1477471370.282:  -5163  81  10  733
1477471370.283:  -5193  81  10  733
1477471370.284:  -5204  81  10  733
1477471370.285:  -5194  81  10  733
1477471370.286:  -5162  81  10  733
1477471370.287:  -5124  81  10  733
1477471370.300:  -5110  81  10  733
1477471370.363:  -5125  81  10  733
1477471370.363:  -5138  81  10  733
1477471370.363:  -5121  81  10  733
1477471370.363:  -5078  81  10  733
1477471370.363:  -5040  81  10  733
1477471370.364:  -5017  81  10  733
1477471370.364:  -4986  81  10  733
1477471370.364:  -4921  81  10  733
1477471370.364:  -4831  81  10  733
1477471370.364:  -4771  81  10  733
1477471370.364:  -4775  81  10  733
1477471370.364:  -4818  81  10  733
1477471370.364:  -4849  81  10  733
1477471370.365:  -4835  81  10  733
1477471370.365:  -4794  81  10  733
1477471370.365:  -4758  81  10  733
1477471370.365:  -4733  81  10  733
1477471370.365:  -4703  81  10  733
1477471370.365:  -4658  81  10  733
1477471370.365:  -4626  81  10  733
1477471370.366:  -4637  81  10  733
1477471370.366:  -4684  81  10  733
1477471370.366:  -4738  81  10  733
1477471370.366:  -4773  81  10  733
1477471370.366:  -4797  81  10  733
1477471370.366:  -4823  81  10  733
1477471370.367:  -4851  81  10  733
1477471370.367:  -4857  81  10  733
1477471370.367:  -4831  81  10  733
1477471370.367:  -4805  81  10  733
1477471370.367:  -4821  81  10  733
1477471370.367:  -4879  81  10  733
1477471370.368:  -4930  81  10  733
1477471370.368:  -4926  81  10  733
1477471370.368:  -4872  81  10  733
1477471370.368:  -4817  81  10  733
1477471370.368:  -4806  81  10  733
1477471370.368:  -4826  81  10  733
1477471370.368:  -4827  81  10  733
1477471370.369:  -4796  81  10  733
1477471370.369:  -4768  81  10  733
1477471370.369:  -4782  81  10  733
1477471370.369:  -4836  81  10  733
1477471370.370:  -4886  81  10  733
1477471370.370:  -4894  81  10  733
1477471370.384:  -4866  81  10  733
1477471370.384:  -4822  81  10  733
1477471370.385:  -4767  81  10  733
1477471370.385:  -4686  81  10  733
1477471370.385:  -4586  81  10  733
1477471370.385:  -4507  81  10  733
1477471370.386:  -4481  81  10  733
1477471370.386:  -4491  81  10  733
1477471370.386:  -4485  81  10  733
1477471370.387:  -4435  81  10  733
1477471370.390:  -4367  81  10  733
1477471370.392:  -4321  81  10  733
1477471370.398:  -4310  81  10  733
1477471370.398:  -4302  81  10  733
1477471370.412:  -4279  81  10  733
1477471370.412:  -4262  81  10  733
1477471370.412:  -4286  81  10  733
1477471370.413:  -4352  81  10  733
1477471370.413:  -4429  81  10  733
1477471370.413:  -4481  81  10  733
1477471370.413:  -4501  81  10  733
1477471370.413:  -4505  81  10  733
1477471370.414:  -4505  81  10  733
1477471370.415:  -4496  81  10  733
1477471370.418:  -4474  81  10  733
1477471370.422:  -4459  81  10  733
1477471370.433:  -4472  81  10  733
1477471370.435:  -4510  81  10  733
1477471370.436:  -4551  81  10  733
1477471370.438:  -4574  81  10  733
1477471370.438:  -4581  81  10  733
1477471370.439:  -4578  81  10  733
1477471370.440:  -4571  81  10  733
1477471370.440:  -4553  81  10  733
1477471370.441:  -4529  81  10  733
1477471370.442:  -4521  81  10  733
1477471370.443:  -4555  81  10  733
1477471370.443:  -4618  81  10  733
1477471370.445:  -4681  81  10  733
1477471370.448:  -4715  81  10  733
1477471370.452:  -4719  81  10  733
1477471370.452:  -4710  81  10  733
1477471370.454:  -4694  81  10  733
1477471370.455:  -4660  81  10  733
1477471370.488:  -4603  81  10  733
1477471370.489:  -4543  81  10  733
1477471370.489:  -4508  81  10  733
1477471370.489:  -4511  81  10  733
1477471370.489:  -4539  81  10  733
1477471370.489:  -4566  81  10  733
1477471370.490:  -4561  81  10  733
1477471370.490:  -4502  81  10  733
1477471370.490:  -4378  81  10  733
1477471370.490:  -4193  81  10  733
1477471370.490:  -3967  81  10  733
1477471370.490:  -3727  81  10  733
1477471370.491:  -3488  81  10  733
1477471370.491:  -3241  81  10  733
1477471370.491:  -2984  81  10  733
1477471370.491:  -2750  81  10  733
1477471370.491:  -2577  81  10  733
1477471370.493:  -2440  81  10  733
1477471370.493:  -2256  81  10  733
1477471370.495:  -1987  81  10  733
1477471370.497:  -1731  81  10  733
1477471370.503:  -1676  81  10  733
1477471370.503:  -1917  81  10  733
1477471370.508:  -2337  81  10  733
1477471370.520:  -2749  81  10  733
1477471370.521:  -3135  81  10  733
1477471370.522:  -3675  81  10  733
1477471370.523:  -4517  81  10  733
1477471370.524:  -5529  81  10  733
1477471370.524:  -6371  81  10  733
1477471370.525:  -6815  81  10  733
1477471370.526:  -6947  81  10  733
1477471370.528:  -7030  81  10  733
1477471370.528:  -7195  81  10  733
1477471370.529:  -7337  81  10  733
1477471370.530:  -7291  81  10  733
1477471370.543:  -7025  81  10  733
1477471370.543:  -6644  81  10  733
1477471370.543:  -6248  81  10  733
1477471370.543:  -5873  81  10  733
1477471370.544:  -5520  81  10  733
1477471370.544:  -5221  81  10  733
1477471370.544:  -5011  81  10  733
1477471370.544:  -4860  81  10  733
1477471370.557:  -4695  81  10  733
1477471370.557:  -4500  81  10  733
1477471370.558:  -4341  81  10  733
1477471370.558:  -4292  81  10  733
1477471370.558:  -4354  81  10  733
1477471370.558:  -4444  81  10  733
1477471370.559:  -4472  81  10  733
1477471370.563:  -4424  81  10  733
1477471370.563:  -4358  81  10  733
1477471370.563:  -4337  81  10  733
1477471370.564:  -4365  81  10  733
1477471370.565:  -4389  81  10  733
1477471370.568:  -4350  81  10  733
1477471370.570:  -4236  81  10  733
1477471370.571:  -4088  81  10  733
1477471370.576:  -3952  81  10  733
1477471370.589:  -3852  81  10  733
1477471370.590:  -3791  81  10  733
1477471370.590:  -3780  81  10  733
1477471370.591:  -3833  81  10  733
1477471370.591:  -3932  81  10  733
1477471370.592:  -4025  81  10  733
1477471370.592:  -4061  81  10  733
1477471370.593:  -4029  81  10  733
1477471370.593:  -3955  81  10  733
1477471370.595:  -3875  81  10  733
1477471370.595:  -3803  81  10  733
1477471370.600:  -3735  81  10  733
1477471370.607:  -3681  81  10  733
1477471370.607:  -3662  81  10  733
1477471370.607:  -3679  81  10  733
1477471370.607:  -3708  81  10  733
1477471370.607:  -3727  81  10  733
1477471370.608:  -3731  81  10  733
1477471370.611:  -3731  81  10  733
1477471370.613:  -3724  81  10  733
1477471370.617:  -3696  81  10  733
1477471370.618:  -3639  81  10  733
1477471370.626:  -3582  81  10  733
1477471370.626:  -3566  81  10  733
1477471370.626:  -3599  81  10  733
1477471370.626:  -3631  81  10  733
1477471370.630:  -3620  81  10  733
1477471370.631:  -3568  81  10  733
1477471370.632:  -3515  81  10  733
1477471370.632:  -3487  81  10  733
1477471370.637:  -3462  81  10  733
1477471370.637:  -3401  81  10  733
1477471370.642:  -3300  81  10  733
1477471370.643:  -3208  81  10  733
1477471370.648:  -3174  81  10  733
1477471370.649:  -3184  81  10  733
1477471370.649:  -3185  81  10  733
1477471370.652:  -3132  81  10  733
1477471370.652:  -3038  81  10  733
1477471370.653:  -2944  81  10  733
1477471370.655:  -2872  81  10  733
1477471370.660:  -2804  81  10  733
1477471370.661:  -2716  81  10  733
1477471370.661:  -2618  81  10  733
1477471370.662:  -2544  81  10  733
1477471370.663:  -2504  81  10  733
1477471370.667:  -2473  81  10  733
1477471370.668:  -2429  81  10  733
1477471370.669:  -2366  81  10  733
1477471370.671:  -2301  81  10  733
1477471370.672:  -2234  81  10  733
1477471370.678:  -2152  81  10  733
1477471370.679:  -2054  81  10  733
1477471370.709:  -1974  81  10  733
1477471370.711:  -1947  81  10  733
1477471370.716:  -1966  81  10  733
1477471370.717:  -1984  81  10  733
1477471370.717:  -1972  81  10  733
1477471370.718:  -1935  81  10  733
1477471370.721:  -1904  81  10  733
1477471370.730:  -1884  81  10  733
1477471370.731:  -1858  81  10  733
1477471370.731:  -1813  81  10  733
1477471370.731:  -1774  81  10  733
1477471370.731:  -1778  81  10  733
1477471370.731:  -1830  81  10  733
1477471370.731:  -1899  81  10  733
1477471370.732:  -1952  81  10  733
1477471370.732:  -1984  81  10  733
1477471370.732:  -2010  81  10  733
1477471370.732:  -2040  81  10  733
1477471370.732:  -2066  81  10  733
1477471370.732:  -2074  81  10  733
1477471370.733:  -2080  81  10  733
1477471370.733:  -2117  81  10  732
1477471370.733:  -2201  81  10  732
1477471370.733:  -2312  81  10  732
1477471370.733:  -2418  81  10  732
1477471370.733:  -2498  81  10  732
1477471370.733:  -2562  81  10  732
1477471370.735:  -2621  81  10  732
1477471370.735:  -2679  81  10  732
1477471370.736:  -2729  81  10  732
1477471370.738:  -2782  81  10  732
1477471370.740:  -2862  81  10  732
1477471370.741:  -2986  81  10  732
1477471370.746:  -3134  81  10  732
1477471370.746:  -3274  81  10  732
1477471370.755:  -3390  81  10  732
1477471370.755:  -3494  81  10  732
1477471370.756:  -3602  81  10  732
1477471370.757:  -3713  81  10  732
1477471370.757:  -3808  81  10  732
1477471370.760:  -3884  81  10  732
1477471370.774:  -3971  81  10  732
1477471370.775:  -4101  81  10  732
1477471370.776:  -4269  81  10  732
1477471370.777:  -4442  81  10  732
1477471370.780:  -4585  81  10  732
1477471370.781:  -4693  81  10  732
1477471370.781:  -4783  81  10  732
1477471370.782:  -4866  81  10  732
1477471370.793:  -4940  81  10  732
1477471370.794:  -5002  81  10  732
1477471370.794:  -5074  81  10  732
1477471370.795:  -5183  81  10  732
1477471370.796:  -5321  81  10  732
1477471370.796:  -5451  81  10  732
1477471370.799:  -5540  81  10  732
1477471370.800:  -5590  81  10  732
1477471370.801:  -5626  81  10  732
1477471370.803:  -5664  81  10  732
1477471370.805:  -5694  81  10  732
1477471370.807:  -5698  81  10  732
1477471370.807:  -5686  81  10  732
1477471370.808:  -5690  81  10  732
1477471370.809:  -5721  81  10  732
1477471370.809:  -5761  81  10  732
1477471370.810:  -5785  81  10  732
1477471370.810:  -5787  81  10  732
1477471370.810:  -5773  81  10  732
1477471370.815:  -5745  81  10  732
1477471370.815:  -5698  81  10  732
1477471370.816:  -5635  81  10  732
1477471370.820:  -5590  81  10  732
1477471370.820:  -5595  81  10  732
1477471370.822:  -5639  81  10  732
1477471370.829:  -5669  81  10  732
1477471370.829:  -5648  81  10  732
1477471370.830:  -5592  81  10  732
1477471370.832:  -5544  81  10  732
1477471370.833:  -5513  81  10  732
1477471370.851:  -5466  81  10  732
1477471370.852:  -5372  81  10  732
1477471370.852:  -5259  81  10  732
1477471370.853:  -5195  81  10  732
1477471370.854:  -5207  81  10  732
1477471370.854:  -5250  81  10  732
1477471370.855:  -5263  81  10  732
1477471370.856:  -5237  81  10  732
1477471370.858:  -5208  81  10  732
1477471370.858:  -5200  81  10  732
1477471370.859:  -5187  81  10  732
1477471370.860:  -5129  81  10  732
1477471370.860:  -5032  81  10  732
1477471370.861:  -4945  81  10  732
1477471370.874:  -4902  81  10  732
1477471370.875:  -4879  81  10  732
1477471370.899:  -4832  81  10  732
1477471370.900:  -4755  81  10  732
1477471370.911:  -4677  81  10  732
1477471370.912:  -4624  81  10  732
1477471370.913:  -4594  81  10  732
1477471370.913:  -4573  81  10  732
1477471370.914:  -4569  81  10  732
1477471370.914:  -4603  81  10  732
1477471370.915:  -4683  81  10  732
1477471370.916:  -4782  81  10  732
1477471370.917:  -4872  81  10  732
1477471370.917:  -4940  81  10  732
1477471370.918:  -4982  81  10  732
1477471370.920:  -4988  81  10  732
1477471370.921:  -4960  81  10  732
1477471370.921:  -4910  81  10  732
1477471370.933:  -4859  81  10  732
1477471370.934:  -4816  81  10  732
1477471370.935:  -4778  81  10  732
1477471370.937:  -4746  81  10  732
1477471370.938:  -4730  81  10  732
1477471370.939:  -4731  81  10  732
1477471370.940:  -4722  81  10  732
1477471370.940:  -4674  81  10  732
1477471370.941:  -4596  81  10  732
1477471370.941:  -4532  81  10  732
1477471370.942:  -4511  81  10  732
1477471370.943:  -4519  81  10  732
1477471370.953:  -4524  81  10  732
1477471370.954:  -4519  81  10  732
1477471370.954:  -4529  81  10  732
1477471370.954:  -4573  81  10  732
1477471370.955:  -4627  81  10  732
1477471370.955:  -4656  81  10  732
1477471370.955:  -4647  81  10  732
1477471370.955:  -4625  81  10  732
1477471370.955:  -4617  81  10  732
1477471370.956:  -4632  81  10  732
1477471370.956:  -4666  81  10  732
1477471370.956:  -4710  81  10  732
1477471370.957:  -4751  81  10  732
1477471370.957:  -4778  81  10  732
1477471370.957:  -4778  81  10  732
1477471370.957:  -4754  81  10  732
1477471370.958:  -4718  81  10  732
1477471370.958:  -4676  81  10  732
1477471370.958:  -4626  81  10  732
1477471370.958:  -4575  81  10  732
1477471370.961:  -4551  81  10  732
1477471370.965:  -4576  81  10  732
1477471370.972:  -4634  81  10  732
1477471370.973:  -4692  81  10  732
1477471370.974:  -4723  81  10  732
1477471370.974:  -4732  81  10  732
1477471370.980:  -4732  81  10  732
1477471370.981:  -4725  81  10  732
1477471370.990:  -4701  81  10  732
1477471370.990:  -4667  81  10  732
1477471370.991:  -4659  81  10  732
1477471370.991:  -4702  81  10  732
1477471370.991:  -4778  81  10  732
1477471370.991:  -4847  81  10  732
1477471370.991:  -4888  81  10  732
1477471370.992:  -4916  81  10  732
1477471370.992:  -4951  81  10  732
1477471370.995:  -4987  81  10  732
1477471370.995:  -4998  81  10  732
1477471370.997:  -4983  81  10  732
1477471370.999:  -4981  81  10  732
1477471371.002:  -5026  81  10  732
1477471371.007:  -5101  81  10  732
1477471371.008:  -5157  81  10  732
1477471371.009:  -5169  81  10  732
1477471371.011:  -5159  81  10  732
1477471371.013:  -5153  81  10  732
1477471371.014:  -5143  81  10  732
1477471371.030:  -5100  81  10  732
1477471371.030:  -5017  81  10  732
1477471371.031:  -4941  81  10  732
1477471371.033:  -4926  81  10  732
1477471371.033:  -4966  81  10  732
1477471371.105:  -5005  81  10  732
1477471371.106:  -5001  81  10  732
1477471371.106:  -4962  81  10  732
1477471371.106:  -4924  81  10  732
1477471371.106:  -4904  81  10  732
1477471371.107:  -4882  81  10  732
1477471371.107:  -4840  81  10  732
1477471371.107:  -4797  81  10  732
1477471371.107:  -4791  81  10  732
1477471371.107:  -4829  81  10  732
1477471371.107:  -4872  81  10  732
1477471371.107:  -4888  81  10  732
1477471371.108:  -4875  81  10  732
1477471371.108:  -4864  81  10  732
1477471371.108:  -4874  81  10  732
1477471371.108:  -4889  81  10  732
1477471371.108:  -4882  81  10  732
1477471371.108:  -4857  81  10  732
1477471371.108:  -4852  81  10  732
1477471371.109:  -4901  81  10  732
1477471371.109:  -4985  81  10  732
1477471371.109:  -5062  81  10  732
1477471371.109:  -5102  81  10  732
1477471371.109:  -5119  81  10  732
1477471371.109:  -5135  81  10  732
1477471371.109:  -5148  81  10  732
1477471371.109:  -5130  81  10  732
1477471371.110:  -5074  81  10  732
1477471371.110:  -5019  81  10  732
1477471371.110:  -5005  81  10  732
1477471371.110:  -5029  81  10  732
1477471371.110:  -5052  81  10  732
1477471371.110:  -5043  81  10  732
1477471371.110:  -5014  81  10  732
1477471371.111:  -4984  81  10  732
1477471371.111:  -4953  81  10  732
1477471371.111:  -4904  81  10  732
1477471371.111:  -4848  81  10  732
1477471371.111:  -4830  81  10  732
1477471371.111:  -4876  81  10  732
1477471371.111:  -4946  81  10  732
1477471371.112:  -4969  81  10  732
1477471371.112:  -4928  81  10  732
1477471371.113:  -4868  81  10  732
1477471371.113:  -4840  81  10  732
1477471371.116:  -4833  81  10  732
1477471371.116:  -4795  81  10  732
1477471371.118:  -4704  81  10  732
1477471371.119:  -4608  81  10  732
1477471371.121:  -4573  81  10  732
1477471371.122:  -4607  81  10  732
1477471371.125:  -4661  81  10  732
1477471371.129:  -4688  81  10  732
1477471371.154:  -4686  81  10  732
1477471371.154:  -4681  81  10  732
1477471371.154:  -4691  81  10  732
1477471371.155:  -4706  81  10  732
1477471371.155:  -4713  81  10  732
1477471371.155:  -4721  81  10  732
1477471371.155:  -4749  81  10  732
1477471371.155:  -4799  81  10  732
1477471371.155:  -4858  81  10  732
1477471371.155:  -4911  81  10  732
1477471371.155:  -4947  81  10  732
1477471371.156:  -4963  81  10  732
1477471371.156:  -4952  81  10  732
1477471371.157:  -4916  81  10  732
1477471371.158:  -4868  81  10  732
1477471371.168:  -4834  81  10  732
1477471371.168:  -4841  81  10  732
1477471371.168:  -4886  81  10  732
1477471371.172:  -4936  81  10  732
1477471371.172:  -4956  81  10  732
1477471371.172:  -4936  81  10  732
1477471371.173:  -4898  81  10  732
1477471371.173:  -4869  81  10  732
1477471371.174:  -4850  81  10  732
1477471371.175:  -4819  81  10  732
1477471371.178:  -4770  81  10  732
1477471371.195:  -4729  81  10  732
1477471371.195:  -4728  81  10  732
1477471371.195:  -4762  81  10  732
1477471371.195:  -4794  81  10  732
1477471371.196:  -4794  81  10  732
1477471371.196:  -4778  81  10  732
1477471371.196:  -4762  81  10  732
1477471371.196:  -4737  81  10  732
1477471371.196:  -4677  81  10  732
1477471371.197:  -4584  81  10  732
1477471371.199:  -4508  81  10  732
1477471371.203:  -4485  81  10  732
1477471371.203:  -4474  81  10  732
1477471371.207:  -4394  81  10  732
1477471371.207:  -4203  81  10  732
1477471371.209:  -3950  81  10  732
1477471371.211:  -3698  81  10  732
1477471371.213:  -3456  81  10  732
1477471371.217:  -3172  81  10  732
1477471371.217:  -2831  81  10  732
1477471371.225:  -2519  81  10  732
1477471371.227:  -2333  81  10  732
1477471371.229:  -2252  81  10  732
1477471371.231:  -2147  81  10  732
1477471371.232:  -1951  81  10  732
1477471371.234:  -1785  81  10  732
1477471371.244:  -1857  81  10  732
1477471371.245:  -2219  81  10  732
1477471371.245:  -2685  81  10  732
1477471371.245:  -3054  81  10  732
1477471371.245:  -3370  81  10  732
1477471371.245:  -3890  81  10  732
1477471371.246:  -4756  81  10  732
1477471371.246:  -5770  81  10  732
1477471371.246:  -6561  81  10  732
1477471371.248:  -6939  81  10  732
1477471371.250:  -7045  81  10  732
1477471371.252:  -7123  81  10  732
1477471371.266:  -7242  81  10  732
1477471371.266:  -7270  81  10  732
1477471371.266:  -7097  81  10  732
1477471371.266:  -6775  81  10  732
1477471371.266:  -6421  81  10  732
1477471371.266:  -6082  81  10  732
1477471371.267:  -5742  81  10  732
1477471371.268:  -5410  81  10  732
1477471371.273:  -5149  81  10  732
1477471371.273:  -4982  81  10  732
1477471371.274:  -4835  81  10  732
1477471371.277:  -4617  81  10  732
1477471371.283:  -4346  81  10  732
1477471371.285:  -4139  81  10  732
1477471371.295:  -4084  81  10  732
1477471371.296:  -4144  81  10  732
1477471371.296:  -4211  81  10  732
1477471371.297:  -4216  81  10  732
1477471371.297:  -4180  81  10  732
1477471371.297:  -4154  81  10  732
1477471371.298:  -4155  81  10  732
1477471371.298:  -4152  81  10  732
1477471371.300:  -4116  81  10  732
1477471371.301:  -4053  81  10  732
1477471371.303:  -3990  81  10  732
1477471371.304:  -3942  81  10  732
1477471371.316:  -3907  81  10  732
1477471371.316:  -3878  81  10  732
1477471371.318:  -3863  81  10  732
1477471371.318:  -3873  81  10  732
1477471371.320:  -3900  81  10  732
1477471371.320:  -3914  81  10  732
1477471371.322:  -3890  81  10  732
1477471371.323:  -3838  81  10  732
1477471371.323:  -3789  81  10  732
1477471371.324:  -3758  81  10  732
1477471371.326:  -3735  81  10  732
1477471371.327:  -3710  81  10  732
1477471371.335:  -3691  81  10  732
1477471371.338:  -3688  81  10  732
1477471371.338:  -3699  81  10  732
1477471371.339:  -3697  81  10  732
1477471371.340:  -3671  81  10  732
1477471371.340:  -3641  81  10  732
1477471371.341:  -3638  81  10  732
1477471371.345:  -3664  81  10  732
1477471371.354:  -3692  81  10  732
1477471371.355:  -3697  81  10  732
1477471371.355:  -3688  81  10  732
1477471371.356:  -3679  81  10  732
1477471371.357:  -3666  81  10  732
1477471371.358:  -3617  81  10  732
1477471371.359:  -3513  81  10  732
1477471371.360:  -3389  81  10  732
1477471371.371:  -3303  81  10  732
1477471371.372:  -3274  81  10  732
1477471371.372:  -3262  81  10  732
1477471371.373:  -3218  81  10  732
1477471371.374:  -3129  81  10  732
1477471371.374:  -3025  81  10  732
1477471371.375:  -2929  81  10  732
1477471371.375:  -2836  81  10  732
1477471371.376:  -2724  81  10  732
1477471371.383:  -2602  81  10  732
1477471371.388:  -2506  81  10  732
1477471371.389:  -2453  81  10  732
1477471371.390:  -2423  81  10  732
1477471371.391:  -2385  81  10  732
1477471371.393:  -2330  81  10  732
1477471371.394:  -2273  81  10  732
1477471371.405:  -2222  81  10  732
1477471371.406:  -2162  81  10  732
1477471371.407:  -2076  81  10  732
1477471371.408:  -1974  81  10  732
1477471371.409:  -1893  81  10  732
1477471371.410:  -1857  81  10  732
1477471371.410:  -1851  81  10  732
1477471371.413:  -1841  81  10  732
1477471371.423:  -1812  81  10  732
1477471371.423:  -1768  81  10  732
1477471371.423:  -1722  81  10  732
1477471371.423:  -1676  81  10  732
1477471371.423:  -1626  81  10  732
1477471371.423:  -1576  81  10  732
1477471371.424:  -1550  81  10  732
1477471371.424:  -1560  81  10  732
1477471371.426:  -1594  81  10  732
1477471371.427:  -1631  81  10  732
1477471371.431:  -1657  81  10  732
1477471371.432:  -1676  81  10  732
1477471371.442:  -1695  81  10  732
1477471371.442:  -1711  81  10  732
1477471371.442:  -1712  81  10  732
1477471371.442:  -1704  81  10  732
1477471371.442:  -1713  81  10  732
1477471371.442:  -1767  81  10  732
1477471371.443:  -1857  81  10  732
1477471371.447:  -1953  81  10  732
1477471371.451:  -2034  81  10  736
1477471371.455:  -2108  81  10  736
1477471371.455:  -2196  81  10  736
1477471371.457:  -2293  81  10  736
1477471371.457:  -2374  81  10  736
1477471371.458:  -2428  81  10  736
1477471371.459:  -2482  81  10  736
1477471371.464:  -2578  81  10  736
1477471371.464:  -2720  81  10  736
1477471371.466:  -2869  81  10  736
1477471371.467:  -2991  81  10  736
1477471371.475:  -3090  81  10  736
1477471371.485:  -3194  81  10  736
1477471371.485:  -3316  81  10  736
1477471371.485:  -3435  81  10  736
1477471371.485:  -3529  81  10  736
1477471371.485:  -3614  81  10  736
1477471371.485:  -3733  81  10  736
1477471371.486:  -3900  81  10  736
1477471371.486:  -4083  81  10  736
1477471371.487:  -4238  81  10  736
1477471371.491:  -4355  81  10  736
1477471371.491:  -4461  81  10  736
1477471371.493:  -4575  81  10  736
1477471371.493:  -4689  81  10  736
1477471371.495:  -4779  81  10  736
1477471371.497:  -4846  81  10  736
1477471371.500:  -4929  81  10  736
1477471371.513:  -5055  81  10  736
1477471371.514:  -5206  81  10  736
1477471371.515:  -5340  81  10  736
1477471371.515:  -5437  81  10  736
1477471371.516:  -5514  81  10  736
1477471371.517:  -5588  81  10  736
1477471371.518:  -5649  81  10  736
1477471371.518:  -5678  81  10  736
1477471371.519:  -5684  81  10  736
1477471371.520:  -5714  81  10  736
1477471371.521:  -5805  81  10  736
1477471371.522:  -5925  81  10  736
1477471371.525:  -6016  81  10  736
1477471371.527:  -6050  81  10  736
1477471371.535:  -6055  81  10  736
1477471371.536:  -6071  81  10  736
1477471371.537:  -6098  81  10  736
1477471371.537:  -6098  81  10  736
1477471371.537:  -6056  81  10  736
1477471371.539:  -6007  81  10  736
1477471371.541:  -5999  81  10  736
1477471371.546:  -6031  81  10  736
1477471371.555:  -6062  81  10  736
1477471371.555:  -6062  81  10  736
1477471371.556:  -6039  81  10  736
1477471371.556:  -6022  81  10  736
1477471371.557:  -6013  81  10  736
1477471371.557:  -5990  81  10  736
1477471371.560:  -5942  81  10  736
1477471371.560:  -5902  81  10  736
1477471371.562:  -5913  81  10  736
1477471371.563:  -5973  81  10  736
1477471371.565:  -6037  81  10  736
1477471371.566:  -6071  81  10  736
1477471371.576:  -6079  81  10  736
1477471371.577:  -6088  81  10  736
1477471371.577:  -6096  81  10  736
1477471371.579:  -6075  81  10  736
1477471371.580:  -6012  81  10  736
1477471371.581:  -5946  81  10  736
1477471371.583:  -5933  81  10  736
1477471371.584:  -5978  81  10  736
1477471371.589:  -6023  81  10  736
1477471371.590:  -6016  81  10  736
1477471371.590:  -5956  81  10  736
1477471371.590:  -5887  81  10  736
1477471371.592:  -5833  81  10  736
1477471371.594:  -5774  81  10  736
1477471371.597:  -5684  81  10  736
1477471371.601:  -5575  81  10  736
1477471371.612:  -5491  81  10  736
1477471371.612:  -5455  81  10  736
1477471371.613:  -5446  81  10  736
1477471371.613:  -5439  81  10  736
1477471371.613:  -5429  81  10  736
1477471371.614:  -5436  81  10  736
1477471371.614:  -5459  81  10  736
1477471371.615:  -5477  81  10  736
1477471371.616:  -5464  81  10  736
1477471371.621:  -5434  81  10  736
1477471371.638:  -5427  81  10  736
1477471371.639:  -5469  81  10  736
1477471371.639:  -5531  81  10  736
1477471371.640:  -5571  81  10  736
1477471371.640:  -5564  81  10  736
1477471371.641:  -5522  81  10  736
1477471371.642:  -5470  81  10  736
1477471371.642:  -5411  81  10  736
1477471371.643:  -5334  81  10  736
1477471371.643:  -5243  81  10  736
1477471371.644:  -5170  81  10  736
1477471371.645:  -5139  81  10  736
1477471371.645:  -5131  81  10  736
1477471371.646:  -5109  81  10  736
1477471371.648:  -5058  81  10  736
1477471371.650:  -5004  81  10  736
1477471371.655:  -4973  81  10  736
1477471371.656:  -4951  81  10  736
1477471371.660:  -4902  81  10  736
1477471371.662:  -4815  81  10  736
1477471371.697:  -4735  81  10  736
1477471371.698:  -4715  81  10  736
1477471371.699:  -4751  81  10  736
1477471371.699:  -4789  81  10  736
1477471371.700:  -4785  81  10  736
1477471371.701:  -4742  81  10  736
1477471371.701:  -4695  81  10  736
1477471371.703:  -4660  81  10  736
1477471371.704:  -4622  81  10  736
1477471371.705:  -4569  81  10  736
1477471371.705:  -4513  81  10  736
1477471371.706:  -4484  81  10  736
1477471371.720:  -4488  81  10  736
1477471371.720:  -4510  81  10  736
1477471371.721:  -4539  81  10  736
1477471371.721:  -4572  81  10  736
1477471371.721:  -4607  81  10  736
1477471371.721:  -4628  81  10  736
1477471371.721:  -4622  81  10  736
1477471371.721:  -4597  81  10  736
1477471371.721:  -4589  81  10  736
1477471371.721:  -4632  81  10  736
1477471371.722:  -4713  81  10  736
1477471371.722:  -4784  81  10  736
1477471371.722:  -4814  81  10  736
1477471371.722:  -4813  81  10  736
1477471371.722:  -4815  81  10  736
1477471371.722:  -4828  81  10  736
1477471371.722:  -4831  81  10  736
1477471371.723:  -4803  81  10  736
1477471371.723:  -4757  81  10  736
1477471371.723:  -4733  81  10  736
1477471371.724:  -4757  81  10  736
1477471371.724:  -4802  81  10  736
1477471371.726:  -4834  81  10  736
1477471371.730:  -4839  81  10  736
1477471371.730:  -4834  81  10  736
1477471371.732:  -4831  81  10  736
1477471371.733:  -4820  81  10  736
1477471371.736:  -4783  81  10  736
1477471371.749:  -4729  81  10  736
1477471371.816:  -4697  81  10  736
1477471371.824:  -4711  81  10  736
1477471371.824:  -4753  81  10  736
1477471371.824:  -4785  81  10  736
1477471371.824:  -4784  81  10  736
1477471371.824:  -4762  81  10  736
1477471371.825:  -4738  81  10  736
1477471371.825:  -4716  81  10  736
1477471371.825:  -4684  81  10  736
1477471371.825:  -4639  81  10  736
1477471371.825:  -4603  81  10  736
1477471371.825:  -4603  81  10  736
1477471371.825:  -4631  81  10  736
1477471371.826:  -4662  81  10  736
1477471371.826:  -4674  81  10  736
1477471371.826:  -4667  81  10  736
1477471371.826:  -4656  81  10  736
1477471371.826:  -4647  81  10  736
1477471371.826:  -4629  81  10  736
1477471371.826:  -4595  81  10  736
1477471371.827:  -4560  81  10  736
1477471371.827:  -4553  81  10  736
1477471371.827:  -4584  81  10  736
1477471371.827:  -4629  81  10  736
1477471371.827:  -4660  81  10  736
1477471371.827:  -4665  81  10  736
1477471371.827:  -4653  81  10  736
1477471371.827:  -4630  81  10  736
1477471371.828:  -4586  81  10  736
1477471371.828:  -4516  81  10  736
1477471371.828:  -4444  81  10  736
1477471371.828:  -4412  81  10  736
1477471371.828:  -4426  81  10  736
1477471371.828:  -4447  81  10  736
1477471371.828:  -4436  81  10  736
1477471371.829:  -4389  81  10  736
1477471371.829:  -4338  81  10  736
1477471371.829:  -4301  81  10  736
1477471371.829:  -4266  81  10  736
1477471371.829:  -4214  81  10  736
1477471371.829:  -4159  81  10  736
1477471371.830:  -4137  81  10  736
1477471371.830:  -4156  81  10  736
1477471371.830:  -4180  81  10  736
1477471371.830:  -4177  81  10  736
1477471371.831:  -4155  81  10  736
1477471371.831:  -4149  81  10  736
1477471371.831:  -4161  81  10  736
1477471371.833:  -4158  81  10  736
1477471371.840:  -4113  81  10  736
1477471371.840:  -4049  81  10  736
1477471371.843:  -4030  81  10  736
1477471371.847:  -4082  81  10  736
1477471371.849:  -4167  81  10  736
1477471371.850:  -4232  81  10  736
1477471371.861:  -4268  81  10  736
1477471371.861:  -4311  81  10  736
1477471371.862:  -4389  81  10  736
1477471371.862:  -4484  81  10  736
1477471371.862:  -4554  81  10  736
1477471371.862:  -4592  81  10  736
1477471371.862:  -4636  81  10  736
1477471371.862:  -4726  81  10  736
1477471371.863:  -4851  81  10  736
1477471371.865:  -4965  81  10  736
1477471371.866:  -5033  81  10  736
1477471371.900:  -5058  81  10  736
1477471371.916:  -5062  81  10  736
1477471371.916:  -5058  81  10  736
1477471371.917:  -5041  81  10  736
1477471371.917:  -5012  81  10  736
1477471371.917:  -4997  81  10  736
1477471371.917:  -5016  81  10  736
1477471371.917:  -5055  81  10  736
1477471371.918:  -5076  81  10  736
1477471371.918:  -5067  81  10  736
1477471371.918:  -5048  81  10  736
1477471371.918:  -5043  81  10  736
1477471371.919:  -5041  81  10  736
1477471371.919:  -4996  81  10  736
1477471371.919:  -4892  81  10  736
1477471371.919:  -4781  81  10  736
1477471371.920:  -4734  81  10  736
1477471371.920:  -4759  81  10  736
1477471371.920:  -4788  81  10  736
1477471371.920:  -4757  81  10  736
1477471371.920:  -4677  81  10  736
1477471371.920:  -4627  81  10  736
1477471371.921:  -4647  81  10  736
1477471371.921:  -4689  81  10  736
1477471371.921:  -4662  81  10  736
1477471371.922:  -4537  81  10  736
1477471371.922:  -4371  81  10  736
1477471371.924:  -4220  81  10  736
1477471371.925:  -4070  81  10  736
1477471371.930:  -3862  81  10  736
1477471371.930:  -3563  81  10  736
1477471371.942:  -3206  81  10  736
1477471371.942:  -2859  81  10  736
1477471371.943:  -2580  81  10  736
1477471371.943:  -2369  81  10  736
1477471371.943:  -2185  81  10  736
1477471371.944:  -1985  81  10  736
1477471371.945:  -1794  81  10  736
1477471371.946:  -1717  81  10  736
1477471371.948:  -1879  81  10  736
1477471371.948:  -2291  81  10  736
1477471371.953:  -2808  81  10  736
1477471371.954:  -3280  81  10  736
1477471371.962:  -3728  81  10  736
1477471371.962:  -4332  81  10  736
1477471371.962:  -5208  81  10  736
1477471371.963:  -6217  81  10  736
1477471371.987:  -7059  81  10  736
1477471371.989:  -7544  81  10  736
1477471371.990:  -7746  81  10  736
1477471371.991:  -7873  81  10  736
1477471371.993:  -8019  81  10  736
1477471371.998:  -8088  81  10  736
1477471371.998:  -7951  81  10  736
1477471371.998:  -7588  81  10  736
1477471372.014:  -7092  81  10  736
1477471372.014:  -6583  81  10  736
1477471372.015:  -6144  81  10  736
1477471372.015:  -5796  81  10  736
1477471372.015:  -5529  81  10  736
1477471372.016:  -5307  81  10  736
1477471372.016:  -5081  81  10  736
1477471372.017:  -4831  81  10  736
1477471372.018:  -4587  81  10  736
1477471372.018:  -4393  81  10  736
1477471372.019:  -4272  81  10  736
1477471372.020:  -4222  81  10  736
1477471372.020:  -4237  81  10  736
1477471372.021:  -4288  81  10  736
1477471372.021:  -4328  81  10  736
1477471372.022:  -4318  81  10  736
1477471372.035:  -4261  81  10  736
1477471372.037:  -4196  81  10  736
1477471372.037:  -4135  81  10  736
1477471372.038:  -4044  81  10  736
1477471372.039:  -3883  81  10  736
1477471372.040:  -3684  81  10  736
1477471372.040:  -3531  81  10  736
1477471372.041:  -3477  81  10  736
1477471372.041:  -3494  81  10  736
1477471372.042:  -3520  81  10  736
1477471372.043:  -3527  81  10  736
1477471372.043:  -3527  81  10  736
1477471372.056:  -3518  81  10  736
1477471372.057:  -3463  81  10  736
1477471372.058:  -3332  81  10  736
1477471372.059:  -3157  81  10  736
1477471372.060:  -3023  81  10  736
1477471372.060:  -2987  81  10  736
1477471372.061:  -3026  81  10  736
1477471372.062:  -3072  81  10  736
1477471372.063:  -3080  81  10  736
1477471372.063:  -3055  81  10  736
1477471372.064:  -3024  81  10  736
1477471372.064:  -2997  81  10  736
1477471372.065:  -2963  81  10  736
1477471372.066:  -2923  81  10  736
1477471372.067:  -2901  81  10  736
1477471372.067:  -2926  81  10  736
1477471372.067:  -2989  81  10  736
1477471372.067:  -3053  81  10  736
1477471372.068:  -3087  81  10  736
1477471372.073:  -3089  81  10  736
1477471372.073:  -3075  81  10  736
1477471372.079:  -3051  81  10  736
1477471372.080:  -3004  81  10  736
1477471372.081:  -2930  81  10  736
1477471372.096:  -2859  81  10  736
1477471372.096:  -2838  81  10  736
1477471372.097:  -2871  81  10  736
1477471372.098:  -2913  81  10  736
1477471372.099:  -2915  81  10  736
1477471372.100:  -2870  81  10  736
1477471372.103:  -2816  81  10  736
1477471372.105:  -2782  81  10  736
1477471372.114:  -2751  81  10  736
1477471372.114:  -2686  81  10  736
1477471372.114:  -2591  81  10  736
1477471372.114:  -2519  81  10  736
1477471372.115:  -2508  81  10  736
1477471372.115:  -2532  81  10  736
1477471372.115:  -2528  81  10  736
1477471372.116:  -2468  81  10  736
1477471372.116:  -2385  81  10  736
1477471372.117:  -2325  81  10  736
1477471372.117:  -2288  81  10  736
1477471372.118:  -2235  81  10  736
1477471372.118:  -2160  81  10  736
1477471372.120:  -2106  81  10  736
1477471372.123:  -2112  81  10  736
1477471372.124:  -2153  81  10  736
1477471372.127:  -2170  81  10  736
1477471372.128:  -2136  81  10  736
1477471372.132:  -2084  81  10  736
1477471372.133:  -2054  81  10  736
1477471372.134:  -2039  81  10  736
1477471372.136:  -1997  81  10  736
1477471372.138:  -1921  81  10  736
1477471372.140:  -1856  81  10  736
1477471372.141:  -1851  81  10  736
1477471372.146:  -1896  81  10  736
1477471372.159:  -1944  81  10  736
1477471372.160:  -1954  81  10  736
1477471372.160:  -1933  81  10  736
1477471372.162:  -1909  81  10  736
1477471372.163:  -1897  81  10  736
1477471372.163:  -1893  81  10  736
1477471372.163:  -1893  81  10  736
1477471372.163:  -1909  81  10  736
1477471372.164:  -1953  81  10  736
1477471372.164:  -2014  81  10  736
1477471372.166:  -2077  81  10  736
1477471372.168:  -2130  81  10  736
1477471372.179:  -2180  81  10  736
1477471372.179:  -2230  81  10  736
1477471372.179:  -2274  81  10  736
1477471372.179:  -2304  81  10  736
1477471372.180:  -2333  81  10  735
1477471372.180:  -2393  81  10  735
1477471372.181:  -2508  81  10  735
1477471372.183:  -2659  81  10  735
1477471372.187:  -2809  81  10  735
1477471372.187:  -2936  81  10  735
1477471372.189:  -3053  81  10  735
1477471372.190:  -3184  81  10  735
1477471372.199:  -3325  81  10  735
1477471372.200:  -3442  81  10  735
1477471372.200:  -3525  81  10  735
1477471372.201:  -3610  81  10  735
1477471372.201:  -3746  81  10  735
1477471372.203:  -3928  81  10  735
1477471372.204:  -4102  81  10  735
1477471372.209:  -4224  81  10  735
1477471372.210:  -4303  81  10  735
1477471372.211:  -4380  81  10  735
1477471372.213:  -4477  81  10  735
1477471372.215:  -4575  81  10  735
1477471372.218:  -4649  81  10  735
1477471372.221:  -4710  81  10  735
1477471372.221:  -4798  81  10  735
1477471372.223:  -4928  81  10  735
1477471372.238:  -5073  81  10  735
1477471372.239:  -5199  81  10  735
1477471372.240:  -5294  81  10  735
1477471372.240:  -5368  81  10  735
1477471372.242:  -5429  81  10  735
1477471372.243:  -5472  81  10  735
1477471372.244:  -5487  81  10  735
1477471372.244:  -5491  81  10  735
1477471372.246:  -5518  81  10  735
1477471372.247:  -5579  81  10  735
1477471372.247:  -5653  81  10  735
1477471372.248:  -5710  81  10  735
1477471372.249:  -5740  81  10  735
1477471372.250:  -5757  81  10  735
1477471372.252:  -5771  81  10  735
1477471372.255:  -5776  81  10  735
1477471372.270:  -5754  81  10  735
1477471372.271:  -5709  81  10  735
1477471372.272:  -5671  81  10  735
1477471372.273:  -5668  81  10  735
1477471372.274:  -5689  81  10  735
1477471372.275:  -5703  81  10  735
1477471372.276:  -5688  81  10  735
1477471372.277:  -5642  81  10  735
1477471372.289:  -5581  81  10  735
1477471372.290:  -5520  81  10  735
1477471372.291:  -5460  81  10  735
1477471372.292:  -5403  81  10  735
1477471372.292:  -5355  81  10  735
1477471372.303:  -5325  81  10  735
1477471372.306:  -5308  81  10  735
1477471372.306:  -5293  81  10  735
1477471372.307:  -5276  81  10  735
1477471372.307:  -5253  81  10  735
1477471372.310:  -5223  81  10  735
1477471372.312:  -5182  81  10  735
1477471372.312:  -5123  81  10  735
1477471372.313:  -5049  81  10  735
1477471372.324:  -4981  81  10  735
1477471372.324:  -4944  81  10  735
1477471372.325:  -4939  81  10  735
1477471372.325:  -4944  81  10  735
1477471372.325:  -4930  81  10  735
1477471372.325:  -4884  81  10  735
1477471372.326:  -4820  81  10  735
1477471372.326:  -4761  81  10  735
1477471372.326:  -4719  81  10  735
1477471372.326:  -4691  81  10  735
1477471372.327:  -4678  81  10  735
1477471372.327:  -4693  81  10  735
1477471372.330:  -4739  81  10  735
1477471372.330:  -4797  81  10  735
1477471372.342:  -4847  81  10  735
1477471372.342:  -4880  81  10  735
1477471372.344:  -4903  81  10  735
1477471372.344:  -4916  81  10  735
1477471372.346:  -4908  81  10  735
1477471372.347:  -4873  81  10  735
1477471372.348:  -4832  81  10  735
1477471372.348:  -4826  81  10  735
1477471372.351:  -4863  81  10  735
1477471372.352:  -4914  81  10  735
1477471372.361:  -4939  81  10  735
1477471372.363:  -4931  81  10  735
1477471372.364:  -4916  81  10  735
1477471372.364:  -4915  81  10  735
1477471372.366:  -4918  81  10  735
1477471372.367:  -4895  81  10  735
1477471372.367:  -4849  81  10  735
1477471372.367:  -4821  81  10  735
1477471372.367:  -4844  81  10  735
1477471372.368:  -4902  81  10  735
1477471372.368:  -4951  81  10  735
1477471372.369:  -4961  81  10  735
1477471372.380:  -4946  81  10  735
1477471372.380:  -4927  81  10  735
1477471372.380:  -4912  81  10  735
1477471372.382:  -4882  81  10  735
1477471372.382:  -4840  81  10  735
1477471372.382:  -4811  81  10  735
1477471372.383:  -4817  81  10  735
1477471372.383:  -4840  81  10  735
1477471372.387:  -4847  81  10  735
1477471372.387:  -4829  81  10  735
1477471372.392:  -4808  81  10  735
1477471372.392:  -4795  81  10  735
1477471372.394:  -4772  81  10  735
1477471372.397:  -4711  81  10  735
1477471372.407:  -4623  81  10  735
1477471372.407:  -4562  81  10  735
1477471372.407:  -4563  81  10  735
1477471372.407:  -4597  81  10  735
1477471372.407:  -4607  81  10  735
1477471372.408:  -4569  81  10  735
1477471372.411:  -4515  81  10  735
1477471372.411:  -4489  81  10  735
1477471372.412:  -4486  81  10  735
1477471372.415:  -4464  81  10  735
1477471372.419:  -4406  81  10  735
1477471372.419:  -4353  81  10  735
1477471372.426:  -4367  81  10  735
1477471372.426:  -4447  81  10  735
1477471372.427:  -4533  81  10  735
1477471372.427:  -4572  81  10  735
1477471372.429:  -4570  81  10  735
1477471372.435:  -4573  81  10  735
1477471372.445:  -4598  81  10  735
1477471372.446:  -4611  81  10  735
1477471372.446:  -4581  81  10  735
1477471372.446:  -4536  81  10  735
1477471372.446:  -4543  81  10  735
1477471372.447:  -4621  81  10  735
1477471372.447:  -4716  81  10  735
1477471372.447:  -4767  81  10  735
1477471372.449:  -4771  81  10  735
1477471372.450:  -4779  81  10  735
1477471372.451:  -4818  81  10  735
1477471372.453:  -4854  81  10  735
1477471372.464:  -4839  81  10  735
1477471372.464:  -4787  81  10  735
1477471372.465:  -4763  81  10  735
1477471372.465:  -4803  81  10  735
1477471372.465:  -4868  81  10  735
1477471372.465:  -4898  81  10  735
1477471372.469:  -4877  81  10  735
1477471372.470:  -4849  81  10  735
1477471372.475:  -4845  81  10  735
1477471372.475:  -4848  81  10  735
1477471372.476:  -4816  81  10  735
1477471372.477:  -4746  81  10  735
1477471372.479:  -4693  81  10  735
1477471372.481:  -4697  81  10  735
1477471372.527:  -4739  81  10  735
1477471372.527:  -4770  81  10  735
1477471372.527:  -4766  81  10  735
1477471372.528:  -4750  81  10  735
1477471372.528:  -4746  81  10  735
1477471372.528:  -4747  81  10  735
1477471372.528:  -4721  81  10  735
1477471372.528:  -4669  81  10  735
1477471372.528:  -4636  81  10  735
1477471372.528:  -4658  81  10  735
1477471372.529:  -4705  81  10  735
1477471372.529:  -4717  81  10  735
1477471372.529:  -4663  81  10  735
1477471372.529:  -4578  81  10  735
1477471372.529:  -4518  81  10  735
1477471372.529:  -4497  81  10  735
1477471372.529:  -4480  81  10  735
1477471372.529:  -4441  81  10  735
1477471372.530:  -4421  81  10  735
1477471372.530:  -4482  81  10  735
1477471372.530:  -4639  81  10  735
1477471372.530:  -4840  81  10  735
1477471372.530:  -5020  81  10  735
1477471372.530:  -5159  81  10  735
1477471372.533:  -5282  81  10  735
1477471372.550:  -5418  81  10  735
1477471372.557:  -5561  81  10  735
1477471372.558:  -5686  81  10  735
1477471372.558:  -5790  81  10  735
1477471372.558:  -5887  81  10  735
1477471372.558:  -5988  81  10  735
1477471372.559:  -6085  81  10  735
1477471372.559:  -6173  81  10  735
1477471372.559:  -6248  81  10  735
1477471372.560:  -6311  81  10  735
1477471372.560:  -6351  81  10  735
1477471372.560:  -6356  81  10  735
1477471372.560:  -6329  81  10  735
1477471372.560:  -6302  81  10  735
1477471372.562:  -6315  81  10  735
1477471372.562:  -6373  81  10  735
1477471372.563:  -6442  81  10  735
1477471372.568:  -6484  81  10  735
1477471372.569:  -6481  81  10  735
1477471372.580:  -6449  81  10  735
1477471372.580:  -6409  81  10  735
1477471372.580:  -6375  81  10  735
1477471372.580:  -6343  81  10  735
1477471372.580:  -6313  81  10  735
1477471372.580:  -6297  81  10  735
1477471372.581:  -6299  81  10  735
1477471372.584:  -6295  81  10  735
1477471372.585:  -6267  81  10  735
1477471372.591:  -6221  81  10  735
1477471372.600:  -6183  81  10  735
1477471372.601:  -6156  81  10  735
1477471372.602:  -6118  81  10  735
1477471372.602:  -6044  81  10  735
1477471372.604:  -5951  81  10  735
1477471372.604:  -5887  81  10  735
1477471372.606:  -5866  81  10  735
1477471372.607:  -5824  81  10  735
1477471372.607:  -5686  81  10  735
1477471372.608:  -5441  81  10  735
1477471372.609:  -5145  81  10  735
1477471372.613:  -4847  81  10  735
1477471372.629:  -4531  81  10  735
1477471372.630:  -4163  81  10  735
1477471372.631:  -3779  81  10  735
1477471372.631:  -3476  81  10  735
1477471372.632:  -3296  81  10  735
1477471372.633:  -3150  81  10  735
1477471372.634:  -2939  81  10  735
1477471372.634:  -2713  81  10  735
1477471372.646:  -2663  81  10  735
1477471372.646:  -2911  81  10  735
1477471372.647:  -3349  81  10  735
1477471372.647:  -3758  81  10  735
1477471372.647:  -4084  81  10  735
1477471372.648:  -4522  81  10  735
1477471372.648:  -5270  81  10  735
1477471372.649:  -6232  81  10  735
1477471372.649:  -7065  81  10  735
1477471372.650:  -7511  81  10  735
1477471372.650:  -7631  81  10  735
1477471372.651:  -7687  81  10  735
1477471372.653:  -7823  81  10  735
1477471372.654:  -7940  81  10  735
1477471372.658:  -7873  81  10  735
1477471372.659:  -7607  81  10  735
1477471372.660:  -7272  81  10  735
1477471372.661:  -6978  81  10  735
1477471372.677:  -6729  81  10  735
1477471372.678:  -6484  81  10  735
1477471372.679:  -6244  81  10  735
1477471372.679:  -6041  81  10  735
1477471372.680:  -5862  81  10  735
1477471372.681:  -5656  81  10  735
1477471372.682:  -5406  81  10  735
1477471372.682:  -5178  81  10  735
1477471372.683:  -5065  81  10  735
1477471372.683:  -5090  81  10  735
1477471372.686:  -5183  81  10  735
1477471372.686:  -5255  81  10  735
1477471372.688:  -5265  81  10  735
1477471372.690:  -5234  81  10  735
1477471372.692:  -5188  81  10  735
1477471372.694:  -5129  81  10  735
1477471372.695:  -5037  81  10  735
1477471372.700:  -4905  81  10  735
1477471372.712:  -4759  81  10  735
1477471372.713:  -4634  81  10  735
1477471372.713:  -4539  81  10  735
1477471372.713:  -4472  81  10  735
1477471372.714:  -4441  81  10  735
1477471372.715:  -4462  81  10  735
1477471372.716:  -4535  81  10  735
1477471372.716:  -4617  81  10  735
1477471372.720:  -4650  81  10  735
1477471372.721:  -4614  81  10  735
1477471372.730:  -4548  81  10  735
1477471372.730:  -4510  81  10  735
1477471372.731:  -4511  81  10  735
1477471372.731:  -4521  81  10  735
1477471372.731:  -4509  81  10  735
1477471372.733:  -4484  81  10  735
1477471372.733:  -4469  81  10  735
1477471372.733:  -4465  81  10  735
1477471372.734:  -4437  81  10  735
1477471372.741:  -4363  81  10  735
1477471372.747:  -4272  81  10  735
1477471372.747:  -4223  81  10  735
1477471372.747:  -4236  81  10  735
1477471372.748:  -4278  81  10  735
1477471372.748:  -4300  81  10  735
1477471372.751:  -4280  81  10  735
1477471372.752:  -4238  81  10  735
1477471372.754:  -4186  81  10  735
1477471372.755:  -4111  81  10  735
1477471372.757:  -3995  81  10  735
1477471372.767:  -3863  81  10  735
1477471372.767:  -3765  81  10  735
1477471372.767:  -3719  81  10  735
1477471372.767:  -3685  81  10  735
1477471372.768:  -3620  81  10  735
1477471372.768:  -3524  81  10  735
1477471372.775:  -3434  81  10  735
1477471372.775:  -3370  81  10  735
1477471372.778:  -3309  81  10  735
1477471372.778:  -3219  81  10  735
1477471372.790:  -3117  81  10  735
1477471372.790:  -3053  81  10  735
1477471372.790:  -3051  81  10  735
1477471372.790:  -3078  81  10  735
1477471372.790:  -3089  81  10  735
1477471372.790:  -3073  81  10  735
1477471372.791:  -3052  81  10  735
1477471372.792:  -3038  81  10  735
1477471372.794:  -3012  81  10  735
1477471372.795:  -2950  81  10  735
1477471372.800:  -2869  81  10  735
1477471372.800:  -2813  81  10  735
1477471372.802:  -2806  81  10  735
1477471372.804:  -2815  81  10  735
1477471372.814:  -2797  81  10  735
1477471372.814:  -2738  81  10  735
1477471372.815:  -2671  81  10  735
1477471372.815:  -2626  81  10  735
1477471372.815:  -2601  81  10  735
1477471372.815:  -2565  81  10  735
1477471372.818:  -2507  81  10  735
1477471372.824:  -2458  81  10  735
1477471372.835:  -2450  81  10  735
1477471372.837:  -2472  81  10  735
1477471372.837:  -2481  81  10  735
1477471372.838:  -2446  81  10  735
1477471372.838:  -2383  81  10  735
1477471372.839:  -2327  81  10  735
1477471372.840:  -2291  81  10  735
1477471372.840:  -2254  81  10  735
1477471372.841:  -2202  81  10  735
1477471372.841:  -2162  81  10  735
1477471372.843:  -2173  81  10  735
1477471372.843:  -2237  81  10  735
1477471372.854:  -2317  81  10  735
1477471372.855:  -2374  81  10  735
1477471372.855:  -2405  81  10  735
1477471372.855:  -2430  81  10  735
1477471372.856:  -2459  81  10  735
1477471372.856:  -2487  81  10  735
1477471372.857:  -2515  81  10  735
1477471372.859:  -2571  81  10  735
1477471372.865:  -2677  81  10  735
1477471372.865:  -2820  81  10  735
1477471372.873:  -2957  81  10  735
1477471372.873:  -3069  81  10  735
1477471372.874:  -3174  81  10  735
1477471372.874:  -3297  81  10  735
1477471372.874:  -3431  81  10  735
1477471372.909:  -3541  81  10  735
1477471372.914:  -3607  81  10  735
1477471372.914:  -3659  81  10  735
1477471372.924:  -3743  81  10  735
1477471372.925:  -3877  81  10  735
1477471372.925:  -4021  81  10  735
1477471372.925:  -4136  81  10  735
1477471372.925:  -4213  81  10  735
1477471372.925:  -4277  81  10  735
1477471372.925:  -4349  81  10  732
1477471372.925:  -4426  81  10  732
1477471372.926:  -4488  81  10  732
1477471372.926:  -4536  81  10  732
1477471372.926:  -4598  81  10  732
1477471372.926:  -4702  81  10  732
1477471372.926:  -4851  81  10  732
1477471372.926:  -5018  81  10  732
1477471372.926:  -5162  81  10  732
1477471372.927:  -5260  81  10  732
1477471372.927:  -5318  81  10  732
1477471372.927:  -5374  81  10  732
1477471372.927:  -5460  81  10  732
1477471372.927:  -5571  81  10  732
1477471372.927:  -5676  81  10  732
1477471372.927:  -5749  81  10  732
1477471372.927:  -5792  81  10  732
1477471372.928:  -5833  81  10  732
1477471372.929:  -5882  81  10  732
1477471372.932:  -5919  81  10  732
1477471372.932:  -5907  81  10  732
1477471372.934:  -5841  81  10  732
1477471372.935:  -5751  81  10  732
1477471372.936:  -5679  81  10  732
1477471372.939:  -5647  81  10  732
1477471372.941:  -5647  81  10  732
1477471372.946:  -5653  81  10  732
1477471372.946:  -5647  81  10  732
1477471372.963:  -5631  81  10  732
1477471372.963:  -5613  81  10  732
1477471372.963:  -5597  81  10  732
1477471372.964:  -5572  81  10  732
1477471372.964:  -5523  81  10  732
1477471372.964:  -5456  81  10  732
1477471372.965:  -5406  81  10  732
1477471372.965:  -5399  81  10  732
1477471372.965:  -5423  81  10  732
1477471372.965:  -5440  81  10  732
1477471372.967:  -5432  81  10  732
1477471372.969:  -5413  81  10  732
1477471372.975:  -5409  81  10  732
1477471372.975:  -5418  81  10  732
1477471372.984:  -5417  81  10  732
1477471372.985:  -5401  81  10  732
1477471372.985:  -5397  81  10  732
1477471372.986:  -5435  81  10  732
1477471372.987:  -5498  81  10  732
1477471372.988:  -5541  81  10  732
1477471372.988:  -5540  81  10  732
1477471372.989:  -5510  81  10  732
1477471372.990:  -5476  81  10  732
1477471372.991:  -5436  81  10  732
1477471372.997:  -5367  81  10  732
1477471372.998:  -5260  81  10  732
1477471373.004:  -5151  81  10  732
1477471373.004:  -5092  81  10  732
1477471373.004:  -5097  81  10  732
1477471373.004:  -5133  81  10  732
1477471373.005:  -5162  81  10  732
1477471373.008:  -5177  81  10  732
1477471373.011:  -5196  81  10  732
1477471373.015:  -5228  81  10  732
1477471373.025:  -5258  81  10  732
1477471373.025:  -5258  81  10  732
1477471373.025:  -5232  81  10  732
1477471373.026:  -5217  81  10  732
1477471373.026:  -5233  81  10  732
1477471373.026:  -5255  81  10  732
1477471373.029:  -5238  81  10  732
1477471373.031:  -5174  81  10  732
1477471373.031:  -5094  81  10  732
1477471373.033:  -5031  81  10  732
1477471373.034:  -4979  81  10  732
1477471373.036:  -4906  81  10  732
1477471373.038:  -4808  81  10  732
1477471373.042:  -4727  81  10  732
1477471373.052:  -4706  81  10  732
1477471373.053:  -4732  81  10  732
1477471373.053:  -4756  81  10  732
1477471373.054:  -4747  81  10  732
1477471373.055:  -4717  81  10  732
1477471373.055:  -4694  81  10  732
1477471373.058:  -4682  81  10  732
1477471373.059:  -4663  81  10  732
1477471373.060:  -4627  81  10  732
1477471373.060:  -4601  81  10  732
1477471373.071:  -4615  81  10  732
1477471373.072:  -4664  81  10  732
1477471373.073:  -4720  81  10  732
1477471373.074:  -4758  81  10  732
1477471373.074:  -4781  81  10  732
1477471373.075:  -4801  81  10  732
1477471373.075:  -4818  81  10  732
1477471373.076:  -4818  81  10  732
1477471373.077:  -4792  81  10  732
1477471373.078:  -4766  81  10  732
1477471373.089:  -4777  81  10  732
1477471373.090:  -4832  81  10  732
1477471373.091:  -4897  81  10  732
1477471373.091:  -4933  81  10  732
1477471373.092:  -4930  81  10  732
1477471373.093:  -4914  81  10  732
1477471373.093:  -4912  81  10  732
1477471373.095:  -4921  81  10  732
1477471373.099:  -4912  81  10  732
1477471373.100:  -4882  81  10  732
1477471373.108:  -4866  81  10  732
1477471373.109:  -4899  81  10  732
1477471373.109:  -4975  81  10  732
1477471373.110:  -5051  81  10  732
1477471373.111:  -5087  81  10  732
1477471373.111:  -5091  81  10  732
1477471373.113:  -5099  81  10  732
1477471373.117:  -5128  81  10  732
1477471373.125:  -5161  81  10  732
1477471373.126:  -5177  81  10  732
1477471373.126:  -5187  81  10  732
1477471373.126:  -5215  81  10  732
1477471373.127:  -5267  81  10  732
1477471373.127:  -5319  81  10  732
1477471373.129:  -5342  81  10  732
1477471373.130:  -5341  81  10  732
1477471373.131:  -5332  81  10  732
1477471373.133:  -5318  81  10  732
1477471373.143:  -5275  81  10  732
1477471373.143:  -5201  81  10  732
1477471373.143:  -5138  81  10  732
1477471373.144:  -5142  81  10  732
1477471373.144:  -5210  81  10  732
1477471373.145:  -5285  81  10  732
1477471373.147:  -5303  81  10  732
1477471373.149:  -5257  81  10  732
1477471373.151:  -5189  81  10  732
1477471373.152:  -5138  81  10  732
1477471373.162:  -5093  81  10  732
1477471373.163:  -5035  81  10  732
1477471373.163:  -4971  81  10  732
1477471373.165:  -4920  81  10  732
1477471373.165:  -4883  81  10  732
1477471373.166:  -4836  81  10  732
1477471373.167:  -4770  81  10  732
1477471373.171:  -4706  81  10  732
1477471373.181:  -4667  81  10  732
1477471373.182:  -4642  81  10  732
1477471373.183:  -4599  81  10  732
1477471373.183:  -4532  81  10  732
1477471373.184:  -4482  81  10  732
1477471373.185:  -4498  81  10  732
1477471373.186:  -4567  81  10  732
1477471373.186:  -4633  81  10  732
1477471373.189:  -4655  81  10  732
1477471373.189:  -4649  81  10  732
1477471373.199:  -4655  81  10  732
1477471373.200:  -4689  81  10  732
1477471373.200:  -4722  81  10  732
1477471373.201:  -4721  81  10  732
1477471373.202:  -4697  81  10  732
1477471373.203:  -4701  81  10  732
1477471373.204:  -4761  81  10  732
1477471373.204:  -4854  81  10  732
1477471373.207:  -4930  81  10  732
1477471373.208:  -4948  81  10  732
1477471373.218:  -4912  81  10  732
1477471373.220:  -4854  81  10  732
1477471373.221:  -4805  81  10  732
1477471373.221:  -4768  81  10  732
1477471373.222:  -4738  81  10  732
1477471373.223:  -4714  81  10  732
1477471373.227:  -4707  81  10  732
1477471373.289:  -4710  81  10  732
1477471373.289:  -4711  81  10  732
1477471373.289:  -4698  81  10  732
1477471373.289:  -4677  81  10  732
1477471373.289:  -4666  81  10  732
1477471373.290:  -4671  81  10  732
1477471373.290:  -4662  81  10  732
1477471373.290:  -4618  81  10  732
1477471373.290:  -4552  81  10  732
1477471373.290:  -4509  81  10  732
1477471373.290:  -4515  81  10  732
1477471373.290:  -4550  81  10  732
1477471373.290:  -4561  81  10  732
1477471373.291:  -4516  81  10  732
1477471373.291:  -4437  81  10  732
1477471373.291:  -4370  81  10  732
1477471373.291:  -4333  81  10  732
1477471373.291:  -4303  81  10  732
1477471373.291:  -4239  81  10  732
1477471373.291:  -4120  81  10  732
1477471373.292:  -3949  81  10  732
1477471373.292:  -3750  81  10  732
1477471373.292:  -3536  81  10  732
1477471373.292:  -3295  81  10  732
1477471373.292:  -3014  81  10  732
1477471373.292:  -2714  81  10  732
1477471373.292:  -2441  81  10  732
1477471373.293:  -2215  81  10  732
1477471373.293:  -1988  81  10  732
1477471373.293:  -1703  81  10  732
1477471373.293:  -1390  81  10  732
1477471373.293:  -1194  81  10  732
1477471373.293:  -1236  81  10  732
1477471373.293:  -1468  81  10  732
1477471373.293:  -1717  81  10  732
1477471373.294:  -1908  81  10  732
1477471373.294:  -2186  81  10  732
1477471373.298:  -2760  81  10  732
1477471373.299:  -3632  81  10  732
1477471373.339:  -4533  81  10  732
1477471373.339:  -5175  81  10  732
1477471373.340:  -5516  81  10  732
1477471373.340:  -5752  81  10  732
1477471373.340:  -6046  81  10  732
1477471373.340:  -6354  81  10  732
1477471373.341:  -6509  81  10  732
1477471373.341:  -6433  81  10  732
1477471373.341:  -6191  81  10  732
1477471373.341:  -5900  81  10  732
1477471373.342:  -5626  81  10  732
1477471373.342:  -5384  81  10  732
1477471373.342:  -5180  81  10  732
1477471373.343:  -5019  81  10  732
1477471373.343:  -4868  81  10  732
1477471373.343:  -4674  81  10  732
1477471373.344:  -4429  81  10  732
1477471373.344:  -4206  81  10  732
1477471373.344:  -4087  81  10  732
1477471373.344:  -4091  81  10  732
1477471373.345:  -4171  81  10  732
1477471373.345:  -4267  81  10  732
1477471373.345:  -4342  81  10  732
1477471373.350:  -4391  81  10  732
1477471373.352:  -4410  81  10  732
1477471373.354:  -4381  81  10  732
1477471373.355:  -4285  81  10  732
1477471373.355:  -4119  81  10  732
1477471373.356:  -3896  81  10  732
1477471373.358:  -3648  81  10  732
1477471373.379:  -3418  81  10  732
1477471373.380:  -3251  81  10  732
1477471373.381:  -3168  81  10  732
1477471373.381:  -3169  81  10  732
1477471373.382:  -3236  81  10  732
1477471373.383:  -3339  81  10  732
1477471373.383:  -3440  81  10  732
1477471373.384:  -3510  81  10  732
1477471373.385:  -3530  81  10  732
1477471373.388:  -3510  81  10  732
1477471373.418:  -3485  81  10  732
1477471373.418:  -3494  81  10  732
1477471373.418:  -3550  81  10  732
1477471373.418:  -3631  81  10  732
1477471373.419:  -3704  81  10  732
1477471373.419:  -3747  81  10  732
1477471373.419:  -3756  81  10  732
1477471373.419:  -3744  81  10  732
1477471373.420:  -3716  81  10  732
1477471373.420:  -3676  81  10  732
1477471373.420:  -3642  81  10  732
1477471373.420:  -3634  81  10  732
1477471373.421:  -3654  81  10  732
1477471373.421:  -3678  81  10  732
1477471373.421:  -3676  81  10  732
1477471373.421:  -3640  81  10  732
1477471373.422:  -3577  81  10  732
1477471373.422:  -3496  81  10  732
1477471373.423:  -3392  81  10  732
1477471373.423:  -3262  81  10  732
1477471373.423:  -3136  81  10  732
1477471373.423:  -3058  81  10  732
1477471373.424:  -3035  81  10  732
1477471373.428:  -3032  81  10  732
1477471373.430:  -3008  81  10  732
1477471373.437:  -2959  81  10  732
1477471373.453:  -2914  81  10  732
1477471373.454:  -2889  81  10  732
1477471373.454:  -2862  81  10  732
1477471373.454:  -2801  81  10  732
1477471373.454:  -2717  81  10  732
1477471373.455:  -2657  81  10  732
1477471373.455:  -2647  81  10  732
1477471373.455:  -2659  81  10  732
1477471373.455:  -2647  81  10  732
1477471373.455:  -2594  81  10  732
1477471373.455:  -2528  81  10  732
1477471373.456:  -2474  81  10  732
1477471373.456:  -2424  81  10  732
1477471373.460:  -2352  81  10  732
1477471373.460:  -2260  81  10  732
1477471373.460:  -2190  81  10  732
1477471373.461:  -2173  81  10  732
1477471373.463:  -2195  81  10  732
1477471373.466:  -2216  81  10  732
1477471373.468:  -2210  81  10  732
1477471373.474:  -2189  81  10  732
1477471373.474:  -2170  81  10  732
1477471373.487:  -2157  81  10  732
1477471373.487:  -2135  81  10  732
1477471373.488:  -2104  81  10  732
1477471373.488:  -2085  81  10  732
1477471373.488:  -2095  81  10  732
1477471373.489:  -2126  81  10  732
1477471373.489:  -2158  81  10  732
1477471373.489:  -2186  81  10  732
1477471373.490:  -2215  81  10  732
1477471373.492:  -2242  81  10  732
1477471373.493:  -2248  81  10  732
1477471373.495:  -2219  81  10  732
1477471373.500:  -2174  81  10  732
1477471373.500:  -2163  81  10  732
1477471373.501:  -2215  81  10  732
1477471373.503:  -2300  81  10  732
1477471373.505:  -2364  81  10  732
1477471373.506:  -2380  81  10  732
1477471373.509:  -2376  81  10  732
1477471373.513:  -2390  81  10  732
1477471373.529:  -2429  81  10  732
1477471373.530:  -2465  81  10  732
1477471373.530:  -2474  81  10  732
1477471373.530:  -2481  81  10  732
1477471373.531:  -2528  81  10  732
1477471373.531:  -2629  81  10  732
1477471373.531:  -2755  81  10  732
1477471373.531:  -2866  81  10  732
1477471373.531:  -2950  81  10  732
1477471373.532:  -3021  81  10  732
1477471373.532:  -3095  81  10  732
1477471373.534:  -3166  81  10  732
1477471373.537:  -3224  81  10  732
1477471373.540:  -3280  81  10  732
1477471373.549:  -3363  81  10  732
1477471373.549:  -3487  81  10  732
1477471373.549:  -3633  81  10  732
1477471373.550:  -3775  81  10  732
1477471373.550:  -3896  81  10  732
1477471373.550:  -4005  81  10  732
1477471373.554:  -4109  81  10  732
1477471373.554:  -4206  81  10  732
1477471373.556:  -4285  81  10  732
1477471373.557:  -4355  81  10  732
1477471373.558:  -4438  81  10  732
1477471373.561:  -4546  81  10  732
1477471373.571:  -4658  81  10  732
1477471373.571:  -4750  81  10  732
1477471373.571:  -4812  81  10  732
1477471373.571:  -4860  81  10  732
1477471373.572:  -4903  81  10  732
1477471373.572:  -4932  81  10  732
1477471373.575:  -4932  81  10  732
1477471373.577:  -4913  84  11  724
1477471373.584:  -4909  84  11  724
1477471373.584:  -4946  84  11  724
1477471373.594:  -5008  84  11  724
1477471373.594:  -5063  84  11  724
1477471373.595:  -5091  84  11  724
1477471373.595:  -5103  84  11  724
1477471373.595:  -5109  84  11  724
1477471373.595:  -5106  84  11  724
1477471373.595:  -5085  84  11  724
1477471373.603:  -5051  84  11  724
1477471373.604:  -5029  84  11  724
1477471373.604:  -5038  84  11  724
1477471373.605:  -5064  84  11  724
1477471373.606:  -5081  84  11  724
1477471373.609:  -5077  84  11  724
1477471373.610:  -5060  84  11  724
1477471373.630:  -5041  84  11  724
1477471373.630:  -5016  84  11  724
1477471373.631:  -4971  84  11  724
1477471373.631:  -4903  84  11  724
1477471373.631:  -4839  84  11  724
1477471373.631:  -4817  84  11  724
1477471373.631:  -4837  84  11  724
1477471373.631:  -4868  84  11  724
1477471373.631:  -4881  84  11  724
1477471373.631:  -4873  84  11  724
1477471373.632:  -4864  84  11  724
1477471373.633:  -4865  84  11  724
1477471373.638:  -4853  84  11  724
1477471373.638:  -4805  84  11  724
1477471373.639:  -4733  84  11  724
1477471373.643:  -4678  84  11  724
1477471373.652:  -4659  84  11  724
1477471373.652:  -4641  84  11  724
1477471373.652:  -4588  84  11  724
1477471373.652:  -4498  84  11  724
1477471373.653:  -4411  84  11  724
1477471373.653:  -4353  84  11  724
1477471373.656:  -4306  84  11  724
1477471373.657:  -4245  84  11  724
1477471373.659:  -4187  84  11  724
1477471373.663:  -4184  84  11  724
1477471373.664:  -4253  84  11  724
1477471373.665:  -4349  84  11  724
1477471373.681:  -4420  84  11  724
1477471373.682:  -4455  84  11  724
1477471373.682:  -4490  84  11  724
1477471373.683:  -4539  84  11  724
1477471373.683:  -4574  84  11  724
1477471373.684:  -4555  84  11  724
1477471373.684:  -4495  84  11  724
1477471373.684:  -4451  84  11  724
1477471373.685:  -4461  84  11  724
1477471373.685:  -4497  84  11  724
1477471373.686:  -4502  84  11  724
1477471373.687:  -4451  84  11  724
1477471373.693:  -4370  84  11  724
1477471373.693:  -4299  84  11  724
1477471373.736:  -4246  84  11  724
1477471373.736:  -4195  84  11  724
1477471373.737:  -4137  84  11  724
1477471373.737:  -4096  84  11  724
1477471373.738:  -4102  84  11  724
1477471373.738:  -4149  84  11  724
1477471373.738:  -4202  84  11  724
1477471373.738:  -4233  84  11  724
1477471373.739:  -4241  84  11  724
1477471373.739:  -4248  84  11  724
1477471373.739:  -4259  84  11  724
1477471373.739:  -4261  84  11  724
1477471373.740:  -4247  84  11  724
1477471373.740:  -4234  84  11  724
1477471373.740:  -4257  84  11  724
1477471373.740:  -4319  84  11  724
1477471373.741:  -4392  84  11  724
1477471373.741:  -4448  84  11  724
1477471373.741:  -4479  84  11  724
1477471373.741:  -4496  84  11  724
1477471373.741:  -4501  84  11  724
1477471373.742:  -4488  84  11  724
1477471373.742:  -4455  84  11  724
1477471373.742:  -4427  84  11  724
1477471373.743:  -4435  84  11  724
1477471373.744:  -4471  84  11  724
1477471373.818:  -4501  84  11  724
1477471373.819:  -4505  84  11  724
1477471373.821:  -4494  84  11  724
1477471373.822:  -4490  84  11  724
1477471373.822:  -4494  84  11  724
1477471373.826:  -4485  84  11  724
1477471373.826:  -4446  84  11  724
1477471373.826:  -4404  84  11  724
1477471373.827:  -4401  84  11  724
1477471373.827:  -4447  84  11  724
1477471373.827:  -4505  84  11  724
1477471373.827:  -4539  84  11  724
1477471373.827:  -4548  84  11  724
1477471373.832:  -4558  84  11  724
1477471373.832:  -4586  84  11  724
1477471373.832:  -4614  84  11  724
1477471373.832:  -4618  84  11  724
1477471373.832:  -4607  84  11  724
1477471373.833:  -4621  84  11  724
1477471373.833:  -4687  84  11  724
1477471373.833:  -4778  84  11  724
1477471373.833:  -4851  84  11  724
1477471373.833:  -4883  84  11  724
1477471373.833:  -4889  84  11  724
1477471373.834:  -4888  84  11  724
1477471373.834:  -4885  84  11  724
1477471373.859:  -4868  84  11  724
1477471373.860:  -4840  84  11  724
1477471373.860:  -4826  84  11  724
1477471373.861:  -4841  84  11  724
1477471373.861:  -4868  84  11  724
1477471373.861:  -4885  84  11  724
1477471373.861:  -4885  84  11  724
1477471373.862:  -4882  84  11  724
1477471373.862:  -4884  84  11  724
1477471373.862:  -4874  84  11  724
1477471373.863:  -4829  84  11  724
1477471373.883:  -4753  84  11  724
1477471373.973:  -4686  84  11  724
1477471373.973:  -4663  84  11  724
1477471373.973:  -4681  84  11  724
1477471373.974:  -4703  84  11  724
1477471373.974:  -4698  84  11  724
1477471373.974:  -4668  84  11  724
1477471373.974:  -4637  84  11  724
1477471373.974:  -4624  84  11  724
1477471373.974:  -4621  84  11  724
1477471373.975:  -4611  84  11  724
1477471373.975:  -4595  84  11  724
1477471373.975:  -4592  84  11  724
1477471373.975:  -4609  84  11  724
1477471373.975:  -4632  84  11  724
1477471373.976:  -4644  84  11  724
1477471373.976:  -4635  84  11  724
1477471373.976:  -4606  84  11  724
1477471373.977:  -4549  84  11  724
1477471373.977:  -4456  84  11  724
1477471373.977:  -4344  84  11  724
1477471373.978:  -4267  84  11  724
1477471373.978:  -4269  84  11  724
1477471373.978:  -4332  84  11  724
1477471373.979:  -4390  84  11  724
1477471373.979:  -4405  84  11  724
1477471373.979:  -4401  84  11  724
1477471373.979:  -4428  84  11  724
1477471373.979:  -4488  84  11  724
1477471373.980:  -4530  84  11  724
1477471373.980:  -4511  84  11  724
1477471373.980:  -4463  84  11  724
1477471373.980:  -4453  84  11  724
1477471373.980:  -4509  84  11  724
1477471373.981:  -4588  84  11  724
1477471373.981:  -4638  84  11  724
1477471373.981:  -4648  84  11  724
1477471373.981:  -4647  84  11  724
1477471373.982:  -4655  84  11  724
1477471373.982:  -4660  84  11  724
1477471373.988:  -4632  84  11  724
1477471373.990:  -4573  84  11  724
1477471373.993:  -4522  84  11  724
1477471374.004:  -4513  84  11  724
1477471374.004:  -4538  84  11  724
1477471374.004:  -4559  84  11  724
1477471374.005:  -4549  84  11  724
1477471374.005:  -4517  84  11  724
1477471374.005:  -4493  84  11  724
1477471374.005:  -4491  84  11  724
1477471374.005:  -4490  84  11  724
1477471374.005:  -4464  84  11  724
1477471374.006:  -4435  84  11  724
1477471374.006:  -4451  84  11  724
1477471374.006:  -4524  84  11  724
1477471374.007:  -4608  84  11  724
1477471374.007:  -4639  84  11  724
1477471374.007:  -4607  84  11  724
1477471374.007:  -4555  84  11  724
1477471374.008:  -4522  84  11  724
1477471374.008:  -4494  84  11  724
1477471374.008:  -4431  84  11  724
1477471374.008:  -4325  84  11  724
1477471374.009:  -4230  84  11  724
1477471374.009:  -4191  84  11  724
1477471374.009:  -4203  84  11  724
1477471374.009:  -4210  84  11  724
1477471374.009:  -4159  84  11  724
1477471374.009:  -4032  84  11  724
1477471374.009:  -3850  84  11  724
1477471374.010:  -3637  84  11  724
1477471374.010:  -3403  84  11  724
1477471374.010:  -3156  84  11  724
1477471374.010:  -2903  84  11  724
1477471374.049:  -2659  84  11  724
1477471374.060:  -2454  84  11  724
1477471374.060:  -2313  84  11  724
1477471374.061:  -2216  84  11  724
1477471374.061:  -2092  84  11  724
1477471374.061:  -1893  84  11  724
1477471374.061:  -1687  84  11  724
1477471374.061:  -1628  84  11  724
1477471374.062:  -1817  84  11  724
1477471374.062:  -2189  84  11  724
1477471374.062:  -2577  84  11  724
1477471374.062:  -2917  84  11  724
1477471374.062:  -3344  84  11  724
1477471374.063:  -4019  84  11  724
1477471374.064:  -4897  84  11  724
1477471374.065:  -5705  84  11  724
1477471374.065:  -6190  84  11  724
1477471374.066:  -6348  84  11  724
1477471374.067:  -6394  84  11  724
1477471374.068:  -6507  84  11  724
1477471374.069:  -6661  84  11  724
1477471374.070:  -6698  84  11  724
1477471374.071:  -6529  84  11  724
1477471374.071:  -6195  84  11  724
1477471374.072:  -5799  84  11  724
1477471374.089:  -5414  84  11  724
1477471374.090:  -5076  84  11  724
1477471374.091:  -4811  84  11  724
1477471374.091:  -4623  84  11  724
1477471374.092:  -4476  84  11  724
1477471374.092:  -4319  84  11  724
1477471374.093:  -4149  84  11  724
1477471374.094:  -4021  84  11  724
1477471374.096:  -3985  84  11  724
1477471374.097:  -4029  84  11  724
1477471374.097:  -4088  84  11  724
1477471374.097:  -4119  84  11  724
1477471374.097:  -4125  84  11  724
1477471374.097:  -4132  84  11  724
1477471374.098:  -4155  84  11  724
1477471374.098:  -4196  84  11  724
1477471374.098:  -4230  84  11  724
1477471374.098:  -4229  84  11  724
1477471374.098:  -4174  84  11  724
1477471374.098:  -4067  84  11  724
1477471374.098:  -3935  84  11  724
1477471374.098:  -3814  84  11  724
1477471374.099:  -3726  84  11  724
1477471374.099:  -3679  84  11  724
1477471374.109:  -3676  84  11  724
1477471374.110:  -3717  84  11  724
1477471374.111:  -3779  84  11  724
1477471374.111:  -3819  84  11  724
1477471374.112:  -3808  84  11  724
1477471374.112:  -3749  84  11  724
1477471374.112:  -3672  84  11  724
1477471374.112:  -3603  84  11  724
1477471374.112:  -3548  84  11  724
1477471374.112:  -3505  84  11  724
1477471374.163:  -3485  84  11  724
1477471374.164:  -3505  84  11  724
1477471374.166:  -3555  84  11  724
1477471374.166:  -3598  84  11  724
1477471374.167:  -3610  84  11  724
1477471374.167:  -3597  84  11  724
1477471374.167:  -3587  84  11  724
1477471374.167:  -3590  84  11  724
1477471374.170:  -3584  84  11  724
1477471374.170:  -3546  84  11  724
1477471374.171:  -3485  84  11  724
1477471374.171:  -3437  84  11  724
1477471374.171:  -3423  84  11  724
1477471374.171:  -3419  84  11  724
1477471374.172:  -3391  84  11  724
1477471374.172:  -3326  84  11  724
1477471374.175:  -3241  84  11  724
1477471374.175:  -3155  84  11  724
1477471374.186:  -3075  84  11  724
1477471374.186:  -2990  84  11  724
1477471374.187:  -2905  84  11  724
1477471374.187:  -2838  84  11  724
1477471374.187:  -2801  84  11  724
1477471374.187:  -2781  84  11  724
1477471374.222:  -2756  84  11  724
1477471374.223:  -2713  84  11  724
1477471374.229:  -2654  84  11  724
1477471374.229:  -2583  84  11  724
1477471374.229:  -2503  84  11  724
1477471374.229:  -2413  84  11  724
1477471374.230:  -2321  84  11  724
1477471374.230:  -2244  84  11  724
1477471374.230:  -2198  84  11  724
1477471374.230:  -2180  84  11  724
1477471374.230:  -2177  84  11  724
1477471374.230:  -2172  84  11  724
1477471374.230:  -2158  84  11  724
1477471374.230:  -2132  84  11  724
1477471374.231:  -2099  84  11  724
1477471374.231:  -2059  84  11  724
1477471374.236:  -2015  84  11  724
1477471374.236:  -1980  84  11  724
1477471374.236:  -1975  84  11  724
1477471374.236:  -1997  84  11  724
1477471374.236:  -2026  84  11  724
1477471374.238:  -2036  84  11  724
1477471374.238:  -2024  84  11  724
1477471374.238:  -2004  84  11  724
1477471374.238:  -1984  84  11  724
1477471374.239:  -1959  84  11  724
1477471374.239:  -1918  84  11  724
1477471374.239:  -1885  84  11  724
1477471374.239:  -1894  84  11  724
1477471374.240:  -1948  84  11  724
1477471374.240:  -2010  84  11  724
1477471374.240:  -2045  84  11  724
1477471374.240:  -2057  84  11  724
1477471374.240:  -2075  84  11  724
1477471374.241:  -2109  84  11  724
1477471374.241:  -2140  84  11  724
1477471374.241:  -2149  84  11  724
1477471374.241:  -2158  84  11  724
1477471374.242:  -2211  84  11  724
1477471374.242:  -2321  84  11  724
1477471374.283:  -2448  84  11  724
1477471374.284:  -2547  84  11  724
1477471374.284:  -2612  84  11  724
1477471374.285:  -2681  84  11  724
1477471374.286:  -2776  84  11  724
1477471374.286:  -2880  84  11  724
1477471374.288:  -2954  84  11  724
1477471374.289:  -2996  84  11  724
1477471374.289:  -3055  84  11  724
1477471374.290:  -3181  84  11  724
1477471374.305:  -3366  84  11  724
1477471374.305:  -3557  84  11  724
1477471374.305:  -3704  84  11  724
1477471374.305:  -3814  84  11  724
1477471374.306:  -3923  84  11  724
1477471374.306:  -4047  84  11  724
1477471374.307:  -4170  84  11  724
1477471374.308:  -4274  84  11  725
1477471374.309:  -4378  84  11  725
1477471374.309:  -4516  84  11  725
1477471374.309:  -4684  84  11  725
1477471374.310:  -4845  84  11  725
1477471374.310:  -4967  84  11  725
1477471374.310:  -5062  84  11  725
1477471374.310:  -5153  84  11  725
1477471374.314:  -5240  84  11  725
1477471374.324:  -5299  84  11  725
1477471374.325:  -5324  84  11  725
1477471374.325:  -5353  84  11  725
1477471374.325:  -5430  84  11  725
1477471374.326:  -5547  84  11  725
1477471374.326:  -5663  84  11  725
1477471374.341:  -5748  84  11  725
1477471374.342:  -5807  84  11  725
1477471374.343:  -5863  84  11  725
1477471374.344:  -5920  84  11  725
1477471374.348:  -5957  84  11  725
1477471374.349:  -5962  84  11  725
1477471374.350:  -5953  84  11  725
1477471374.350:  -5964  84  11  725
1477471374.361:  -5997  84  11  725
1477471374.362:  -6029  84  11  725
1477471374.362:  -6038  84  11  725
1477471374.363:  -6021  84  11  725
1477471374.363:  -5995  84  11  725
1477471374.364:  -5978  84  11  725
1477471374.364:  -5966  84  11  725
1477471374.365:  -5948  84  11  725
1477471374.365:  -5927  84  11  725
1477471374.365:  -5924  84  11  725
1477471374.366:  -5953  84  11  725
1477471374.367:  -5998  84  11  725
1477471374.367:  -6031  84  11  725
1477471374.368:  -6027  84  11  725
1477471374.378:  -5986  84  11  725
1477471374.379:  -5923  84  11  725
1477471374.380:  -5846  84  11  725
1477471374.381:  -5759  84  11  725
1477471374.381:  -5676  84  11  725
1477471374.382:  -5626  84  11  725
1477471374.382:  -5625  84  11  725
1477471374.383:  -5652  84  11  725
1477471374.384:  -5669  84  11  725
1477471374.418:  -5653  84  11  725
1477471374.432:  -5610  84  11  725
1477471374.433:  -5555  84  11  725
1477471374.434:  -5490  84  11  725
1477471374.434:  -5401  84  11  725
1477471374.435:  -5288  84  11  725
1477471374.436:  -5180  84  11  725
1477471374.437:  -5109  84  11  725
1477471374.438:  -5075  84  11  725
1477471374.439:  -5057  84  11  725
1477471374.440:  -5034  84  11  725
1477471374.440:  -5010  84  11  725
1477471374.441:  -4994  84  11  725
1477471374.451:  -4991  84  11  725
1477471374.473:  -4994  84  11  725
1477471374.488:  -4999  84  11  725
1477471374.489:  -5021  84  11  725
1477471374.490:  -5071  84  11  725
1477471374.491:  -5134  84  11  725
1477471374.492:  -5181  84  11  725
1477471374.492:  -5195  84  11  725
1477471374.493:  -5184  84  11  725
1477471374.493:  -5166  84  11  725
1477471374.494:  -5138  84  11  725
1477471374.495:  -5081  84  11  725
1477471374.495:  -4992  84  11  725
1477471374.496:  -4904  84  11  725
1477471374.505:  -4864  84  11  725
1477471374.506:  -4875  84  11  725
1477471374.506:  -4896  84  11  725
1477471374.506:  -4890  84  11  725
1477471374.506:  -4858  84  11  725
1477471374.507:  -4832  84  11  725
1477471374.507:  -4829  84  11  725
1477471374.507:  -4831  84  11  725
1477471374.507:  -4818  84  11  725
1477471374.507:  -4800  84  11  725
1477471374.508:  -4815  84  11  725
1477471374.508:  -4867  84  11  725
1477471374.508:  -4928  84  11  725
1477471374.508:  -4964  84  11  725
1477471374.509:  -4972  84  11  725
1477471374.509:  -4968  84  11  725
1477471374.509:  -4959  84  11  725
1477471374.509:  -4936  84  11  725
1477471374.510:  -4893  84  11  725
1477471374.510:  -4855  84  11  725
1477471374.510:  -4859  84  11  725
1477471374.510:  -4905  84  11  725
1477471374.510:  -4956  84  11  725
1477471374.511:  -4981  84  11  725
1477471374.511:  -4983  84  11  725
1477471374.511:  -4987  84  11  725
1477471374.512:  -4996  84  11  725
1477471374.512:  -4991  84  11  725
1477471374.512:  -4954  84  11  725
1477471374.512:  -4908  84  11  725
1477471374.513:  -4896  84  11  725
1477471374.513:  -4933  84  11  725
1477471374.513:  -4987  84  11  725
1477471374.514:  -5017  84  11  725
1477471374.514:  -5014  84  11  725
1477471374.547:  -5004  84  11  725
1477471374.549:  -5004  84  11  725
1477471374.549:  -5004  84  11  725
1477471374.550:  -4983  84  11  725
1477471374.551:  -4946  84  11  725
1477471374.552:  -4930  84  11  725
1477471374.552:  -4961  84  11  725
1477471374.553:  -5021  84  11  725
1477471374.554:  -5075  84  11  725
1477471374.555:  -5104  84  11  725
1477471374.555:  -5118  84  11  725
1477471374.556:  -5129  84  11  725
1477471374.557:  -5128  84  11  725
1477471374.557:  -5097  84  11  725
1477471374.557:  -5042  84  11  725
1477471374.558:  -5004  84  11  725
1477471374.558:  -5016  84  11  725
1477471374.558:  -5060  84  11  725
1477471374.558:  -5096  84  11  725
1477471374.558:  -5098  84  11  725
1477471374.559:  -5078  84  11  725
1477471374.569:  -5064  84  11  725
1477471374.569:  -5060  84  11  725
1477471374.570:  -5049  84  11  725
1477471374.570:  -5016  84  11  725
1477471374.570:  -4976  84  11  725
1477471374.571:  -4967  84  11  725
1477471374.571:  -4995  84  11  725
1477471374.571:  -5036  84  11  725
1477471374.572:  -5059  84  11  725
1477471374.572:  -5051  84  11  725
1477471374.573:  -5021  84  11  725
1477471374.573:  -4987  84  11  725
1477471374.573:  -4959  84  11  725
1477471374.573:  -4937  84  11  725
1477471374.574:  -4924  84  11  725
1477471374.574:  -4929  84  11  725
1477471374.574:  -4954  84  11  725
1477471374.606:  -4988  84  11  725
1477471374.606:  -5026  84  11  725
1477471374.607:  -5056  84  11  725
1477471374.684:  -5072  84  11  725
1477471374.685:  -5065  84  11  725
1477471374.685:  -5043  84  11  725
1477471374.686:  -5024  84  11  725
1477471374.687:  -5035  84  11  725
1477471374.688:  -5089  84  11  725
1477471374.700:  -5171  84  11  725
1477471374.700:  -5248  84  11  725
1477471374.700:  -5305  84  11  725
1477471374.700:  -5351  84  11  725
1477471374.701:  -5392  84  11  725
1477471374.701:  -5413  84  11  725
1477471374.701:  -5393  84  11  725
1477471374.701:  -5330  84  11  725
1477471374.701:  -5256  84  11  725
1477471374.701:  -5222  84  11  725
1477471374.701:  -5242  84  11  725
1477471374.702:  -5277  84  11  725
1477471374.702:  -5283  84  11  725
1477471374.702:  -5245  84  11  725
1477471374.702:  -5189  84  11  725
1477471374.702:  -5139  84  11  725
1477471374.702:  -5098  84  11  725
1477471374.703:  -5045  84  11  725
1477471374.703:  -4970  84  11  725
1477471374.703:  -4891  84  11  725
1477471374.703:  -4831  84  11  725
1477471374.703:  -4790  84  11  725
1477471374.704:  -4760  84  11  725
1477471374.704:  -4731  84  11  725
1477471374.704:  -4701  84  11  725
1477471374.704:  -4668  84  11  725
1477471374.704:  -4623  84  11  725
1477471374.704:  -4568  84  11  725
1477471374.704:  -4521  84  11  725
1477471374.704:  -4509  84  11  725
1477471374.705:  -4541  84  11  725
1477471374.705:  -4585  84  11  725
1477471374.705:  -4607  84  11  725
1477471374.705:  -4603  84  11  725
1477471374.705:  -4598  84  11  725
1477471374.706:  -4612  84  11  725
1477471374.707:  -4636  84  11  725
1477471374.707:  -4638  84  11  725
1477471374.707:  -4608  84  11  725
1477471374.707:  -4576  84  11  725
1477471374.708:  -4592  84  11  725
1477471374.708:  -4665  84  11  725
1477471374.708:  -4759  84  11  725
1477471374.709:  -4823  84  11  725
1477471374.709:  -4834  84  11  725
1477471374.709:  -4812  84  11  725
1477471374.709:  -4788  84  11  725
1477471374.709:  -4776  84  11  725
1477471374.710:  -4769  84  11  725
1477471374.710:  -4764  84  11  725
1477471374.710:  -4766  84  11  725
1477471374.710:  -4788  84  11  725
1477471374.726:  -4832  84  11  725
1477471374.726:  -4892  84  11  725
1477471374.727:  -4949  84  11  725
1477471374.727:  -4988  84  11  725
1477471374.727:  -5001  84  11  725
1477471374.727:  -4989  84  11  725
1477471374.728:  -4962  84  11  725
1477471374.728:  -4931  84  11  725
1477471374.728:  -4905  84  11  725
1477471374.728:  -4886  84  11  725
1477471374.728:  -4869  84  11  725
1477471374.728:  -4855  84  11  725
1477471374.728:  -4837  84  11  725
1477471374.728:  -4816  84  11  725
1477471374.729:  -4795  84  11  725
1477471374.729:  -4776  84  11  725
1477471374.729:  -4746  84  11  725
1477471374.729:  -4688  84  11  725
1477471374.729:  -4593  84  11  725
1477471374.776:  -4472  84  11  725
1477471374.777:  -4330  84  11  725
1477471374.781:  -4154  84  11  725
1477471374.781:  -3923  84  11  725
1477471374.781:  -3635  84  11  725
1477471374.781:  -3329  84  11  725
1477471374.782:  -3069  84  11  725
1477471374.782:  -2888  84  11  725
1477471374.782:  -2756  84  11  725
1477471374.783:  -2614  84  11  725
1477471374.783:  -2459  84  11  725
1477471374.783:  -2383  84  11  725
1477471374.784:  -2519  84  11  725
1477471374.784:  -2911  84  11  725
1477471374.784:  -3442  84  11  725
1477471374.784:  -3939  84  11  725
1477471374.785:  -4369  84  11  725
1477471374.785:  -4872  84  11  725
1477471374.785:  -5596  84  11  725
1477471374.801:  -6490  84  11  725
1477471374.801:  -7303  84  11  725
1477471374.801:  -7797  84  11  725
1477471374.801:  -7955  84  11  725
1477471374.802:  -7952  84  11  725
1477471374.802:  -7939  84  11  725
1477471374.802:  -7914  84  11  725
1477471374.803:  -7775  84  11  725
1477471374.803:  -7458  84  11  725
1477471374.803:  -6994  84  11  725
1477471374.803:  -6480  84  11  725
1477471374.803:  -6018  84  11  725
1477471374.804:  -5672  84  11  725
1477471374.804:  -5448  84  11  725
1477471374.804:  -5293  84  11  725
1477471374.804:  -5115  84  11  725
1477471374.804:  -4865  84  11  725
1477471374.805:  -4581  84  11  725
1477471374.805:  -4349  84  11  725
1477471374.805:  -4217  84  11  725
1477471374.805:  -4171  84  11  725
1477471374.806:  -4174  84  11  725
1477471374.806:  -4203  84  11  725
1477471374.806:  -4253  84  11  725
1477471374.806:  -4321  84  11  725
1477471374.806:  -4393  84  11  725
1477471374.807:  -4455  84  11  725
1477471374.807:  -4488  84  11  725
1477471374.807:  -4475  84  11  725
1477471374.807:  -4402  84  11  725
1477471374.807:  -4295  84  11  725
1477471374.808:  -4206  84  11  725
1477471374.808:  -4168  84  11  725
1477471374.808:  -4168  84  11  725
1477471374.808:  -4173  84  11  725
1477471374.809:  -4168  84  11  725
1477471374.809:  -4160  84  11  725
1477471374.814:  -4145  84  11  725
1477471374.822:  -4103  84  11  725
1477471374.860:  -4013  84  11  725
1477471374.862:  -3890  84  11  725
1477471374.863:  -3791  84  11  725
1477471374.863:  -3765  84  11  725
1477471374.864:  -3801  84  11  725
1477471374.864:  -3856  84  11  725
1477471374.864:  -3890  84  11  725
1477471374.864:  -3895  84  11  725
1477471374.864:  -3878  84  11  725
1477471374.866:  -3845  84  11  725
1477471374.866:  -3787  84  11  725
1477471374.867:  -3710  84  11  725
1477471374.867:  -3641  84  11  725
1477471374.867:  -3612  84  11  725
1477471374.867:  -3616  84  11  725
1477471374.878:  -3623  84  11  725
1477471374.878:  -3601  84  11  725
1477471374.878:  -3541  84  11  725
1477471374.899:  -3455  84  11  725
1477471374.900:  -3353  84  11  725
1477471374.900:  -3234  84  11  725
1477471374.900:  -3101  84  11  725
1477471374.900:  -2979  84  11  725
1477471374.900:  -2904  84  11  725
1477471374.900:  -2887  84  11  725
1477471374.900:  -2899  84  11  725
1477471374.902:  -2905  84  11  725
1477471374.902:  -2890  84  11  725
1477471374.902:  -2866  84  11  725
1477471374.903:  -2843  84  11  725
1477471374.903:  -2811  84  11  725
1477471374.903:  -2755  84  11  725
1477471374.903:  -2687  84  11  725
1477471374.903:  -2643  84  11  725
1477471374.904:  -2640  84  11  725
1477471374.904:  -2648  84  11  725
1477471374.904:  -2631  84  11  725
1477471374.904:  -2587  84  11  725
1477471374.905:  -2549  84  11  725
1477471374.907:  -2533  84  11  725
1477471374.907:  -2514  84  11  725
1477471374.917:  -2457  84  11  725
1477471374.918:  -2374  84  11  725
1477471374.919:  -2325  84  11  725
1477471374.920:  -2350  84  11  725
1477471374.920:  -2410  84  11  725
1477471374.921:  -2438  84  11  725
1477471374.922:  -2409  84  11  725
1477471374.922:  -2363  84  11  725
1477471374.923:  -2340  84  11  725
1477471374.924:  -2330  84  11  725
1477471374.935:  -2287  84  11  725
1477471374.936:  -2202  84  11  725
1477471374.937:  -2134  84  11  725
1477471374.938:  -2138  84  11  725
1477471374.939:  -2195  84  11  725
1477471374.939:  -2244  84  11  725
1477471374.940:  -2247  84  11  725
1477471374.941:  -2227  84  11  725
1477471374.942:  -2223  84  11  725
1477471374.943:  -2234  84  11  725
1477471374.952:  -2228  84  11  725
1477471374.952:  -2198  84  11  725
1477471374.953:  -2178  84  11  725
1477471374.953:  -2201  84  11  725
1477471374.954:  -2252  84  11  725
1477471374.954:  -2301  87  11  711
1477471374.955:  -2343  87  11  711
1477471374.955:  -2396  87  11  711
1477471374.955:  -2465  87  11  711
1477471374.955:  -2523  87  11  711
1477471374.956:  -2549  87  11  711
1477471374.956:  -2563  87  11  711
1477471374.956:  -2611  87  11  711
1477471374.956:  -2709  87  11  711
1477471374.957:  -2819  87  11  711
1477471374.957:  -2901  87  11  711
1477471374.957:  -2964  87  11  711
1477471374.957:  -3039  87  11  711
1477471374.957:  -3142  87  11  711
1477471374.958:  -3248  87  11  711
1477471374.958:  -3330  87  11  711
1477471374.958:  -3396  87  11  711
1477471374.958:  -3488  87  11  711
1477471374.960:  -3641  87  11  711
1477471374.971:  -3839  87  11  711
1477471374.971:  -4029  87  11  711
1477471374.972:  -4169  87  11  711
1477471374.972:  -4259  87  11  711
1477471374.972:  -4338  87  11  711
1477471374.973:  -4428  87  11  711
1477471374.973:  -4524  87  11  711
1477471374.979:  -4596  87  11  711
1477471374.989:  -4641  87  11  711
1477471374.991:  -4701  87  11  711
1477471374.991:  -4814  87  11  711
1477471374.992:  -4969  87  11  711
1477471374.993:  -5119  87  11  711
1477471374.994:  -5228  87  11  711
1477471374.996:  -5306  87  11  711
1477471374.997:  -5383  87  11  711
1477471374.997:  -5462  87  11  711
1477471374.999:  -5522  87  11  711
1477471375.000:  -5561  87  11  711
1477471375.000:  -5614  87  11  711
1477471375.018:  -5712  87  11  711
1477471375.019:  -5832  87  11  711
1477471375.020:  -5920  87  11  711
1477471375.020:  -5951  87  11  711
1477471375.021:  -5947  87  11  711
1477471375.023:  -5941  87  11  711
1477471375.023:  -5934  87  11  711
1477471375.024:  -5893  87  11  711
1477471375.025:  -5807  87  11  711
1477471375.025:  -5713  87  11  711
1477471375.026:  -5663  87  11  711
1477471375.027:  -5662  87  11  711
1477471375.038:  -5674  87  11  711
1477471375.039:  -5662  87  11  711
1477471375.040:  -5623  87  11  711
1477471375.040:  -5574  87  11  711
1477471375.041:  -5528  87  11  711
1477471375.042:  -5476  87  11  711
1477471375.042:  -5411  87  11  711
1477471375.043:  -5353  87  11  711
1477471375.045:  -5325  87  11  711
1477471375.047:  -5319  87  11  711
1477471375.056:  -5308  87  11  711
1477471375.056:  -5279  87  11  711
1477471375.056:  -5245  87  11  711
1477471375.057:  -5221  87  11  711
1477471375.057:  -5195  87  11  711
1477471375.057:  -5138  87  11  711
1477471375.058:  -5042  87  11  711
1477471375.063:  -4950  87  11  711
1477471375.074:  -4908  87  11  711
1477471375.074:  -4909  87  11  711
1477471375.075:  -4899  87  11  711
1477471375.076:  -4844  87  11  711
1477471375.076:  -4765  87  11  711
1477471375.076:  -4710  87  11  711
1477471375.077:  -4692  87  11  711
1477471375.078:  -4682  87  11  711
1477471375.078:  -4650  87  11  711
1477471375.078:  -4615  87  11  711
1477471375.079:  -4620  87  11  711
1477471375.082:  -4680  87  11  711
1477471375.091:  -4765  87  11  711
1477471375.092:  -4836  87  11  711
1477471375.093:  -4875  87  11  711
1477471375.093:  -4889  87  11  711
1477471375.094:  -4887  87  11  711
1477471375.094:  -4867  87  11  711
1477471375.095:  -4828  87  11  711
1477471375.098:  -4784  87  11  711
1477471375.102:  -4758  87  11  711
1477471375.103:  -4754  87  11  711
1477471375.109:  -4754  87  11  711
1477471375.110:  -4736  87  11  711
1477471375.111:  -4694  87  11  711
1477471375.112:  -4643  87  11  711
1477471375.113:  -4589  87  11  711
1477471375.116:  -4531  87  11  711
1477471375.126:  -4461  87  11  711
1477471375.128:  -4394  87  11  711
1477471375.128:  -4362  87  11  711
1477471375.129:  -4392  87  11  711
1477471375.131:  -4467  87  11  711
1477471375.131:  -4542  87  11  711
1477471375.132:  -4586  87  11  711
1477471375.134:  -4602  87  11  711
1477471375.143:  -4617  87  11  711
1477471375.144:  -4643  87  11  711
1477471375.144:  -4657  87  11  711
1477471375.145:  -4639  87  11  711
1477471375.145:  -4606  87  11  711
1477471375.145:  -4601  87  11  711
1477471375.145:  -4644  87  11  711
1477471375.146:  -4712  87  11  711
1477471375.148:  -4766  87  11  711
1477471375.149:  -4787  87  11  711
1477471375.151:  -4789  87  11  711
1477471375.153:  -4788  87  11  711
1477471375.172:  -4780  87  11  711
1477471375.172:  -4755  87  11  711
1477471375.173:  -4726  87  11  711
1477471375.173:  -4728  87  11  711
1477471375.173:  -4769  87  11  711
1477471375.173:  -4818  87  11  711
1477471375.173:  -4843  87  11  711
1477471375.173:  -4835  87  11  711
1477471375.174:  -4817  87  11  711
1477471375.174:  -4802  87  11  711
1477471375.175:  -4782  87  11  711
1477471375.175:  -4741  87  11  711
1477471375.178:  -4699  87  11  711
1477471375.180:  -4695  87  11  711
1477471375.185:  -4736  87  11  711
1477471375.185:  -4782  87  11  711
1477471375.200:  -4795  87  11  711
1477471375.201:  -4775  87  11  711
1477471375.202:  -4760  87  11  711
1477471375.203:  -4771  87  11  711
1477471375.204:  -4789  87  11  711
1477471375.205:  -4780  87  11  711
1477471375.206:  -4748  87  11  711
1477471375.207:  -4740  87  11  711
1477471375.218:  -4783  87  11  711
1477471375.220:  -4853  87  11  711
1477471375.222:  -4904  87  11  711
1477471375.224:  -4915  87  11  711
1477471375.225:  -4906  87  11  711
1477471375.226:  -4900  87  11  711
1477471375.256:  -4891  87  11  711
1477471375.334:  -4856  87  11  711
1477471375.334:  -4798  87  11  711
1477471375.335:  -4759  87  11  711
1477471375.335:  -4776  87  11  711
1477471375.335:  -4832  87  11  711
1477471375.335:  -4880  87  11  711
1477471375.335:  -4886  87  11  711
1477471375.335:  -4865  87  11  711
1477471375.335:  -4847  87  11  711
1477471375.336:  -4839  87  11  711
1477471375.336:  -4820  87  11  711
1477471375.336:  -4774  87  11  711
1477471375.336:  -4724  87  11  711
1477471375.337:  -4711  87  11  711
1477471375.337:  -4737  87  11  711
1477471375.337:  -4769  87  11  711
1477471375.337:  -4773  87  11  711
1477471375.337:  -4749  87  11  711
1477471375.338:  -4727  87  11  711
1477471375.338:  -4721  87  11  711
1477471375.338:  -4718  87  11  711
1477471375.338:  -4700  87  11  711
1477471375.338:  -4679  87  11  711
1477471375.354:  -4688  87  11  711
1477471375.355:  -4737  87  11  711
1477471375.355:  -4797  87  11  711
1477471375.355:  -4832  87  11  711
1477471375.355:  -4830  87  11  711
1477471375.355:  -4808  87  11  711
1477471375.355:  -4780  87  11  711
1477471375.356:  -4747  87  11  711
1477471375.356:  -4702  87  11  711
1477471375.356:  -4661  87  11  711
1477471375.356:  -4650  87  11  711
1477471375.357:  -4671  87  11  711
1477471375.357:  -4699  87  11  711
1477471375.358:  -4715  87  11  711
1477471375.358:  -4722  87  11  711
1477471375.358:  -4737  87  11  711
1477471375.359:  -4757  87  11  711
1477471375.359:  -4754  87  11  711
1477471375.359:  -4713  87  11  711
1477471375.360:  -4662  87  11  711
