timestamp: ADC HeartRate4sAverage HeartRate30sAverage HRV8sAverage
1477474148.942:  -1743  79  10  771
1477474148.943:  -1753  79  10  771
1477474148.943:  -1757  79  10  771
1477474148.943:  -1766  79  10  771
1477474148.943:  -1777  79  10  771
1477474148.943:  -1778  79  10  771
1477474148.944:  -1770  79  10  771
1477474148.944:  -1772  79  10  771
1477474148.944:  -1801  79  10  771
1477474148.944:  -1843  79  10  771
1477474148.945:  -1866  79  10  771
1477474148.948:  -1857  79  10  771
1477474148.964:  -1840  79  10  771
1477474148.965:  -1849  79  10  771
1477474148.965:  -1885  79  10  771
1477474148.965:  -1925  79  10  771
1477474148.966:  -1946  79  10  771
1477474148.966:  -1950  79  10  771
1477474148.967:  -1957  79  10  771
1477474148.967:  -1975  79  10  771
1477474148.968:  -1997  79  10  771
1477474148.968:  -2016  79  10  771
1477474148.972:  -2036  78  10  775
1477474148.972:  -2063  78  10  775
1477474148.973:  -2096  78  10  775
1477474148.974:  -2121  78  10  775
1477474148.984:  -2126  78  10  775
1477474148.984:  -2124  78  10  775
1477474148.984:  -2131  78  10  775
1477474148.986:  -2160  78  10  775
1477474148.988:  -2196  78  10  775
1477474148.988:  -2221  78  10  775
1477474148.989:  -2231  78  10  775
1477474148.991:  -2241  78  10  775
1477474148.993:  -2267  78  10  775
1477474148.994:  -2314  78  10  775
1477474149.004:  -2364  78  10  775
1477474149.004:  -2397  78  10  775
1477474149.006:  -2412  78  10  775
1477474149.007:  -2426  78  10  775
1477474149.008:  -2453  78  10  775
1477474149.011:  -2494  78  10  775
1477474149.018:  -2535  78  10  775
1477474149.018:  -2566  78  10  775
1477474149.018:  -2593  78  10  775
1477474149.019:  -2629  78  10  775
1477474149.019:  -2678  78  10  775
1477474149.019:  -2731  78  10  775
1477474149.021:  -2771  78  10  775
1477474149.022:  -2794  78  10  775
1477474149.027:  -2812  78  10  775
1477474149.027:  -2839  78  10  775
1477474149.029:  -2876  78  10  775
1477474149.030:  -2904  78  10  775
1477474149.032:  -2919  78  10  775
1477474149.035:  -2931  78  10  775
1477474149.050:  -2961  78  10  775
1477474149.050:  -3002  78  10  775
1477474149.051:  -3032  78  10  775
1477474149.051:  -3038  78  10  775
1477474149.051:  -3039  78  10  775
1477474149.052:  -3057  78  10  775
1477474149.052:  -3089  78  10  775
1477474149.052:  -3107  78  10  775
1477474149.054:  -3097  78  10  775
1477474149.055:  -3080  78  10  775
1477474149.057:  -3088  78  10  775
1477474149.058:  -3113  78  10  775
1477474149.059:  -3117  78  10  775
1477474149.061:  -3080  78  10  775
1477474149.086:  -3033  78  10  775
1477474149.087:  -3016  78  10  775
1477474149.096:  -3021  78  10  775
1477474149.096:  -3003  78  10  775
1477474149.097:  -2935  78  10  775
1477474149.097:  -2842  78  10  775
1477474149.097:  -2773  78  10  775
1477474149.097:  -2733  78  10  775
1477474149.098:  -2689  78  10  775
1477474149.098:  -2617  78  10  775
1477474149.098:  -2536  78  10  775
1477474149.098:  -2471  78  10  775
1477474149.099:  -2413  78  10  775
1477474149.099:  -2333  78  10  775
1477474149.099:  -2229  78  10  775
1477474149.099:  -2136  78  10  775
1477474149.100:  -2073  78  10  775
1477474149.100:  -2017  78  10  775
1477474149.100:  -1927  78  10  775
1477474149.101:  -1807  78  10  775
1477474149.105:  -1697  78  10  775
1477474149.105:  -1628  78  10  775
1477474149.116:  -1583  78  10  775
1477474149.117:  -1531  78  10  775
1477474149.118:  -1472  78  10  775
1477474149.118:  -1427  78  10  775
1477474149.119:  -1397  78  10  775
1477474149.120:  -1353  78  10  775
1477474149.123:  -1285  78  10  775
1477474149.127:  -1226  78  10  775
1477474149.127:  -1212  78  10  775
1477474149.127:  -1226  78  10  775
1477474149.128:  -1216  78  10  775
1477474149.131:  -1159  78  10  775
1477474149.131:  -1097  78  10  775
1477474149.133:  -1077  78  10  775
1477474149.134:  -1098  78  10  775
1477474149.136:  -1110  78  10  775
1477474149.152:  -1090  78  10  775
1477474149.152:  -1059  78  10  775
1477474149.153:  -1044  78  10  775
1477474149.153:  -1042  78  10  775
1477474149.153:  -1038  78  10  775
1477474149.153:  -1039  78  10  775
1477474149.153:  -1063  78  10  775
1477474149.153:  -1101  78  10  775
1477474149.154:  -1114  78  10  775
1477474149.156:  -1086  78  10  775
1477474149.158:  -1054  78  10  775
1477474149.164:  -1062  78  10  775
1477474149.164:  -1108  78  10  775
1477474149.164:  -1147  78  10  775
1477474149.166:  -1149  78  10  775
1477474149.167:  -1128  78  10  775
1477474149.176:  -1113  78  10  775
1477474149.176:  -1112  78  10  775
1477474149.176:  -1115  78  10  775
1477474149.176:  -1121  78  10  775
1477474149.179:  -1147  78  10  775
1477474149.181:  -1187  78  10  775
1477474149.182:  -1212  78  10  775
1477474149.186:  -1201  78  10  775
1477474149.186:  -1167  78  10  775
1477474149.192:  -1149  78  10  775
1477474149.201:  -1171  78  10  775
1477474149.201:  -1216  78  10  775
1477474149.202:  -1247  78  10  775
1477474149.202:  -1238  78  10  775
1477474149.202:  -1199  78  10  775
1477474149.202:  -1164  78  10  775
1477474149.206:  -1169  78  10  775
1477474149.207:  -1222  78  10  775
1477474149.207:  -1283  78  10  775
1477474149.207:  -1304  78  10  775
1477474149.208:  -1274  78  10  775
1477474149.211:  -1234  78  10  775
1477474149.220:  -1236  78  10  775
1477474149.220:  -1278  78  10  775
1477474149.220:  -1311  78  10  775
1477474149.220:  -1301  78  10  775
1477474149.222:  -1268  78  10  775
1477474149.222:  -1255  78  10  775
1477474149.225:  -1271  78  10  775
1477474149.227:  -1287  78  10  775
1477474149.237:  -1278  78  10  775
1477474149.237:  -1254  78  10  775
1477474149.238:  -1245  78  10  775
1477474149.238:  -1261  78  10  775
1477474149.238:  -1285  78  10  775
1477474149.239:  -1296  78  10  775
1477474149.241:  -1294  78  10  775
1477474149.245:  -1287  78  10  775
1477474149.246:  -1279  78  10  775
1477474149.248:  -1272  78  10  775
1477474149.248:  -1268  78  10  775
1477474149.249:  -1263  78  10  775
1477474149.253:  -1249  78  10  775
1477474149.255:  -1226  78  10  775
1477474149.259:  -1208  78  10  775
1477474149.259:  -1211  78  10  775
1477474149.261:  -1232  78  10  775
1477474149.263:  -1245  78  10  775
1477474149.278:  -1236  78  10  775
1477474149.339:  -1220  78  10  775
1477474149.345:  -1226  78  10  775
1477474149.345:  -1260  78  10  775
1477474149.345:  -1293  78  10  775
1477474149.345:  -1295  78  10  775
1477474149.345:  -1264  78  10  775
1477474149.346:  -1232  78  10  775
1477474149.346:  -1231  78  10  775
1477474149.346:  -1255  78  10  775
1477474149.346:  -1273  78  10  775
1477474149.346:  -1262  78  10  775
1477474149.347:  -1235  78  10  775
1477474149.347:  -1225  78  10  775
1477474149.347:  -1249  78  10  775
1477474149.348:  -1287  78  10  775
1477474149.348:  -1305  78  10  775
1477474149.348:  -1291  78  10  775
1477474149.348:  -1269  78  10  775
1477474149.349:  -1267  78  10  775
1477474149.349:  -1283  78  10  775
1477474149.349:  -1298  78  10  775
1477474149.350:  -1299  78  10  775
1477474149.350:  -1293  78  10  775
1477474149.350:  -1292  78  10  775
1477474149.350:  -1295  78  10  775
1477474149.350:  -1298  78  10  775
1477474149.350:  -1305  78  10  775
1477474149.351:  -1319  78  10  775
1477474149.351:  -1329  78  10  775
1477474149.351:  -1316  78  10  775
1477474149.351:  -1286  78  10  775
1477474149.351:  -1269  78  10  775
1477474149.351:  -1281  78  10  775
1477474149.352:  -1307  78  10  775
1477474149.352:  -1312  78  10  775
1477474149.352:  -1285  78  10  775
1477474149.352:  -1261  78  10  775
1477474149.352:  -1264  78  10  775
1477474149.353:  -1289  78  10  775
1477474149.353:  -1306  78  10  775
1477474149.353:  -1299  78  10  775
1477474149.353:  -1288  78  10  775
1477474149.353:  -1291  78  10  775
1477474149.353:  -1301  78  10  775
1477474149.353:  -1298  78  10  775
1477474149.372:  -1279  78  10  775
1477474149.372:  -1270  78  10  775
1477474149.372:  -1287  78  10  775
1477474149.372:  -1316  78  10  775
1477474149.372:  -1326  78  10  775
1477474149.373:  -1306  78  10  775
1477474149.373:  -1283  78  10  775
1477474149.373:  -1288  78  10  775
1477474149.374:  -1316  78  10  775
1477474149.374:  -1340  78  10  775
1477474149.374:  -1336  78  10  775
1477474149.376:  -1320  78  10  775
1477474149.378:  -1315  78  10  775
1477474149.381:  -1323  78  10  775
1477474149.399:  -1328  78  10  775
1477474149.399:  -1320  78  10  775
1477474149.399:  -1318  78  10  775
1477474149.399:  -1332  78  10  775
1477474149.399:  -1350  78  10  775
1477474149.400:  -1345  78  10  775
1477474149.400:  -1321  78  10  775
1477474149.400:  -1315  78  10  775
1477474149.401:  -1354  78  10  775
1477474149.402:  -1420  78  10  775
1477474149.402:  -1474  78  10  775
1477474149.403:  -1495  78  10  775
1477474149.405:  -1504  78  10  775
1477474149.408:  -1535  78  10  775
1477474149.416:  -1595  78  10  775
1477474149.417:  -1672  78  10  775
1477474149.417:  -1755  78  10  775
1477474149.418:  -1834  78  10  775
1477474149.419:  -1897  78  10  775
1477474149.419:  -1933  78  10  775
1477474149.421:  -1941  78  10  775
1477474149.423:  -1944  78  10  775
1477474149.424:  -1958  78  10  775
1477474149.429:  -1966  78  10  775
1477474149.434:  -1934  78  10  775
1477474149.435:  -1841  78  10  775
1477474149.435:  -1714  78  10  775
1477474149.435:  -1605  78  10  775
1477474149.437:  -1551  78  10  775
1477474149.438:  -1537  78  10  775
1477474149.441:  -1518  78  10  775
1477474149.443:  -1469  78  10  775
1477474149.452:  -1409  78  10  775
1477474149.452:  -1369  78  10  775
1477474149.453:  -1357  78  10  775
1477474149.453:  -1349  78  10  775
1477474149.453:  -1324  78  10  775
1477474149.457:  -1288  78  10  775
1477474149.458:  -1256  78  10  775
1477474149.460:  -1225  78  10  775
1477474149.470:  -1176  78  10  775
1477474149.470:  -1113  78  10  775
1477474149.470:  -1067  78  10  775
1477474149.471:  -1063  78  10  775
1477474149.471:  -1090  78  10  775
1477474149.471:  -1113  78  10  775
1477474149.475:  -1123  78  10  775
1477474149.476:  -1136  78  10  775
1477474149.478:  -1164  78  10  775
1477474149.491:  -1187  78  10  775
1477474149.491:  -1188  78  10  775
1477474149.491:  -1187  78  10  775
1477474149.492:  -1212  78  10  775
1477474149.492:  -1250  78  10  775
1477474149.492:  -1257  78  10  775
1477474149.492:  -1219  78  10  775
1477474149.493:  -1180  78  10  775
1477474149.497:  -1185  78  10  775
1477474149.506:  -1219  78  10  775
1477474149.506:  -1240  78  10  775
1477474149.506:  -1261  78  10  775
1477474149.506:  -1372  78  10  775
1477474149.507:  -1638  78  10  775
1477474149.507:  -2000  78  10  775
1477474149.507:  -2319  78  10  775
1477474149.512:  -2503  78  10  775
1477474149.513:  -2567  78  10  775
1477474149.515:  -2553  78  10  775
1477474149.515:  -2453  78  10  775
1477474149.518:  -2218  78  10  775
1477474149.518:  -1837  78  10  775
1477474149.521:  -1365  78  10  775
1477474149.523:   -874  78  10  775
1477474149.524:   -407  78  10  775
1477474149.529:      8  78  10  775
1477474149.530:    303  78  10  775
1477474149.531:    391  78  10  775
1477474149.533:    250  78  10  775
1477474149.549:     -4  78  10  775
1477474149.549:   -157  78  10  775
1477474149.550:    -40  78  10  775
1477474149.550:    342  78  10  775
1477474149.551:    798  78  10  775
1477474149.552:   1116  78  10  775
1477474149.554:   1233  78  10  775
1477474149.554:   1268  78  10  775
1477474149.554:   1369  78  10  775
1477474149.555:   1517  78  10  775
1477474149.555:   1513  78  10  775
1477474149.556:   1161  78  10  775
1477474149.559:    479  78  10  775
1477474149.561:   -310  78  10  775
1477474149.618:   -963  78  10  775
1477474149.619:  -1389  78  10  775
1477474149.619:  -1638  78  10  775
1477474149.620:  -1773  78  10  775
1477474149.621:  -1803  78  10  775
1477474149.622:  -1725  78  10  775
1477474149.632:  -1587  78  10  775
1477474149.633:  -1463  78  10  775
1477474149.634:  -1392  78  10  775
1477474149.634:  -1358  78  10  775
1477474149.635:  -1330  78  10  775
1477474149.636:  -1316  78  10  775
1477474149.636:  -1350  78  10  775
1477474149.638:  -1449  78  10  775
1477474149.638:  -1577  78  10  775
1477474149.639:  -1670  78  10  775
1477474149.640:  -1681  78  10  775
1477474149.640:  -1611  78  10  775
1477474149.650:  -1503  78  10  775
1477474149.651:  -1415  78  10  775
1477474149.652:  -1385  78  10  775
1477474149.652:  -1417  78  10  775
1477474149.653:  -1489  78  10  775
1477474149.654:  -1565  78  10  775
1477474149.655:  -1612  78  10  775
1477474149.655:  -1613  78  10  775
1477474149.656:  -1576  78  10  775
1477474149.657:  -1537  78  10  775
1477474149.657:  -1522  78  10  775
1477474149.658:  -1539  78  10  775
1477474149.668:  -1562  78  10  775
1477474149.669:  -1566  78  10  775
1477474149.670:  -1558  78  10  775
1477474149.671:  -1560  78  10  775
1477474149.671:  -1584  78  10  775
1477474149.672:  -1614  78  10  775
1477474149.672:  -1630  78  10  775
1477474149.673:  -1633  78  10  775
1477474149.674:  -1635  78  10  775
1477474149.674:  -1643  78  10  775
1477474149.675:  -1652  78  10  775
1477474149.675:  -1656  78  10  775
1477474149.676:  -1666  78  10  775
1477474149.677:  -1685  78  10  775
1477474149.677:  -1703  78  10  775
1477474149.678:  -1702  78  10  775
1477474149.679:  -1685  78  10  775
1477474149.679:  -1676  78  10  775
1477474149.681:  -1689  78  10  775
1477474149.681:  -1714  78  10  775
1477474149.682:  -1727  78  10  775
1477474149.682:  -1733  78  10  775
1477474149.683:  -1742  78  10  775
1477474149.684:  -1759  78  10  775
1477474149.684:  -1771  78  10  775
1477474149.685:  -1769  78  10  775
1477474149.686:  -1765  78  10  775
1477474149.687:  -1777  78  10  775
1477474149.687:  -1804  78  10  775
1477474149.687:  -1827  78  10  775
1477474149.707:  -1829  78  10  775
1477474149.707:  -1818  78  10  775
1477474149.708:  -1817  78  10  775
1477474149.709:  -1831  78  10  775
1477474149.709:  -1847  78  10  775
1477474149.710:  -1856  78  10  775
1477474149.711:  -1860  78  10  775
1477474149.711:  -1876  78  10  775
1477474149.712:  -1904  78  10  775
1477474149.713:  -1934  78  10  775
1477474149.714:  -1946  78  10  775
1477474149.714:  -1942  78  10  775
1477474149.715:  -1948  78  10  775
1477474149.715:  -1983  78  10  775
1477474149.716:  -2033  78  10  775
1477474149.717:  -2062  78  10  775
1477474149.717:  -2054  78  10  775
1477474149.717:  -2033  78  10  775
1477474149.717:  -2043  78  10  775
1477474149.718:  -2089  78  10  775
1477474149.722:  -2132  78  10  775
1477474149.722:  -2134  78  10  775
1477474149.723:  -2122  78  10  775
1477474149.726:  -2145  78  10  775
1477474149.741:  -2215  78  10  775
1477474149.743:  -2285  78  10  769
1477474149.745:  -2306  78  10  769
1477474149.746:  -2291  78  10  769
1477474149.747:  -2290  78  10  769
1477474149.747:  -2335  78  10  769
1477474149.748:  -2399  78  10  769
1477474149.748:  -2438  78  10  769
1477474149.749:  -2448  78  10  769
1477474149.750:  -2458  78  10  769
1477474149.762:  -2485  78  10  769
1477474149.762:  -2519  78  10  769
1477474149.763:  -2551  78  10  769
1477474149.763:  -2593  78  10  769
1477474149.764:  -2651  78  10  769
1477474149.765:  -2701  78  10  769
1477474149.765:  -2711  78  10  769
1477474149.766:  -2684  78  10  769
1477474149.767:  -2673  78  10  769
1477474149.768:  -2720  78  10  769
1477474149.768:  -2806  78  10  769
1477474149.769:  -2871  78  10  769
1477474149.771:  -2877  78  10  769
1477474149.773:  -2850  78  10  769
1477474149.784:  -2849  78  10  769
1477474149.785:  -2896  78  10  769
1477474149.793:  -2964  78  10  769
1477474149.794:  -3009  78  10  769
1477474149.795:  -3010  78  10  769
1477474149.795:  -2978  78  10  769
1477474149.796:  -2947  78  10  769
1477474149.797:  -2941  78  10  769
1477474149.798:  -2966  78  10  769
1477474149.798:  -2997  78  10  769
1477474149.799:  -3005  78  10  769
1477474149.799:  -2977  78  10  769
1477474149.800:  -2931  78  10  769
1477474149.800:  -2906  78  10  769
1477474149.812:  -2911  78  10  769
1477474149.812:  -2917  78  10  769
1477474149.812:  -2884  78  10  769
1477474149.812:  -2803  78  10  769
1477474149.812:  -2707  78  10  769
1477474149.812:  -2628  78  10  769
1477474149.819:  -2572  78  10  769
1477474149.820:  -2510  78  10  769
1477474149.836:  -2430  78  10  769
1477474149.837:  -2346  78  10  769
1477474149.837:  -2276  78  10  769
1477474149.837:  -2207  78  10  769
1477474149.837:  -2117  78  10  769
1477474149.837:  -2011  78  10  769
1477474149.837:  -1920  78  10  769
1477474149.838:  -1863  78  10  769
1477474149.838:  -1815  78  10  769
1477474149.838:  -1734  78  10  769
1477474149.838:  -1618  78  10  769
1477474149.838:  -1508  78  10  769
1477474149.842:  -1444  78  10  769
1477474149.845:  -1416  78  10  769
1477474149.846:  -1377  78  10  769
1477474149.849:  -1307  78  10  769
1477474149.859:  -1228  78  10  769
1477474149.859:  -1174  78  10  769
1477474149.859:  -1146  78  10  769
1477474149.860:  -1115  78  10  769
1477474149.860:  -1070  78  10  769
1477474149.860:  -1025  78  10  769
1477474149.861:   -997  78  10  769
1477474149.864:   -981  78  10  769
1477474149.865:   -962  78  10  769
1477474149.869:   -935  78  10  769
1477474149.870:   -915  78  10  769
1477474149.871:   -911  78  10  769
1477474149.877:   -917  78  10  769
1477474149.877:   -919  78  10  769
1477474149.879:   -920  78  10  769
1477474149.882:   -925  78  10  769
1477474149.896:   -934  78  10  769
1477474149.897:   -936  78  10  769
1477474149.897:   -923  78  10  769
1477474149.897:   -907  78  10  769
1477474149.897:   -910  78  10  769
1477474149.898:   -932  78  10  769
1477474149.898:   -956  78  10  769
1477474149.898:   -961  78  10  769
1477474149.898:   -950  78  10  769
1477474149.901:   -936  78  10  769
1477474149.903:   -935  78  10  769
1477474149.907:   -945  78  10  769
1477474149.917:   -956  78  10  769
1477474149.917:   -964  78  10  769
1477474149.918:   -969  78  10  769
1477474149.918:   -968  78  10  769
1477474149.918:   -961  78  10  769
1477474149.919:   -958  78  10  769
1477474149.919:   -976  78  10  769
1477474149.919:  -1013  78  10  769
1477474149.922:  -1048  78  10  769
1477474149.923:  -1057  78  10  769
1477474149.926:  -1042  78  10  769
1477474149.928:  -1029  78  10  769
1477474149.930:  -1033  78  10  769
1477474149.933:  -1043  78  10  769
1477474149.946:  -1039  78  10  769
1477474149.947:  -1023  78  10  769
1477474149.949:  -1011  78  10  769
1477474149.951:  -1014  78  10  769
1477474149.952:  -1021  78  10  769
1477474149.952:  -1021  78  10  769
1477474149.953:  -1018  78  10  769
1477474149.954:  -1026  78  10  769
1477474149.955:  -1045  78  10  769
1477474149.956:  -1062  78  10  769
1477474149.967:  -1070  78  10  769
1477474149.969:  -1074  78  10  769
1477474149.969:  -1082  78  10  769
1477474149.970:  -1091  78  10  769
1477474149.971:  -1091  78  10  769
1477474149.972:  -1084  78  10  769
1477474149.972:  -1079  78  10  769
1477474149.973:  -1084  78  10  769
1477474149.974:  -1095  78  10  769
1477474149.974:  -1101  78  10  769
1477474149.975:  -1096  78  10  769
1477474149.975:  -1080  78  10  769
1477474149.985:  -1053  78  10  769
1477474149.986:  -1027  78  10  769
1477474149.986:  -1018  78  10  769
1477474149.986:  -1025  78  10  769
1477474149.987:  -1031  78  10  769
1477474149.992:  -1019  78  10  769
1477474149.992:   -999  78  10  769
1477474149.992:   -999  78  10  769
1477474149.994:  -1028  78  10  769
1477474149.996:  -1059  78  10  769
1477474149.996:  -1066  78  10  769
1477474149.997:  -1058  78  10  769
1477474149.998:  -1061  78  10  769
1477474149.999:  -1079  78  10  769
1477474150.002:  -1078  78  10  769
1477474150.006:  -1043  78  10  769
1477474150.022:  -1005  78  10  769
1477474150.022:  -1004  78  10  769
1477474150.023:  -1030  78  10  769
1477474150.023:  -1035  78  10  769
1477474150.023:   -992  78  10  769
1477474150.023:   -944  78  10  769
1477474150.024:   -947  78  10  769
1477474150.024:  -1000  78  10  769
1477474150.024:  -1041  78  10  769
1477474150.025:  -1024  78  10  769
1477474150.029:   -976  78  10  769
1477474150.030:   -961  78  10  769
1477474150.030:   -999  78  10  769
1477474150.033:  -1046  78  10  769
1477474150.041:  -1051  78  10  769
1477474150.041:  -1023  78  10  769
1477474150.041:  -1009  78  10  769
1477474150.042:  -1046  78  10  769
1477474150.042:  -1111  78  10  769
1477474150.044:  -1152  78  10  769
1477474150.099:  -1143  78  10  769
1477474150.099:  -1110  78  10  769
1477474150.099:  -1099  78  10  769
1477474150.100:  -1126  78  10  769
1477474150.100:  -1160  78  10  769
1477474150.100:  -1159  78  10  769
1477474150.100:  -1110  78  10  769
1477474150.100:  -1049  78  10  769
1477474150.101:  -1030  78  10  769
1477474150.101:  -1065  78  10  769
1477474150.101:  -1120  78  10  769
1477474150.101:  -1142  78  10  769
1477474150.102:  -1112  78  10  769
1477474150.102:  -1062  78  10  769
1477474150.102:  -1044  78  10  769
1477474150.102:  -1078  78  10  769
1477474150.102:  -1132  78  10  769
1477474150.103:  -1162  78  10  769
1477474150.103:  -1139  78  10  769
1477474150.103:  -1086  78  10  769
1477474150.103:  -1048  78  10  769
1477474150.103:  -1063  78  10  769
1477474150.104:  -1121  78  10  769
1477474150.104:  -1175  78  10  769
1477474150.104:  -1186  78  10  769
1477474150.105:  -1153  78  10  769
1477474150.105:  -1118  78  10  769
1477474150.105:  -1120  78  10  769
1477474150.105:  -1157  78  10  769
1477474150.105:  -1190  78  10  769
1477474150.106:  -1185  78  10  769
1477474150.107:  -1149  78  10  769
1477474150.112:  -1120  78  10  769
1477474150.112:  -1129  78  10  769
1477474150.121:  -1163  78  10  769
1477474150.122:  -1188  78  10  769
1477474150.122:  -1189  78  10  769
1477474150.123:  -1190  78  10  769
1477474150.123:  -1223  78  10  769
1477474150.125:  -1296  78  10  769
1477474150.125:  -1376  78  10  769
1477474150.125:  -1417  78  10  769
1477474150.128:  -1411  78  10  769
1477474150.129:  -1396  78  10  769
1477474150.142:  -1428  78  10  769
1477474150.142:  -1512  78  10  769
1477474150.142:  -1602  78  10  769
1477474150.143:  -1640  78  10  769
1477474150.143:  -1633  78  10  769
1477474150.144:  -1642  78  10  769
1477474150.146:  -1715  78  10  769
1477474150.147:  -1829  78  10  769
1477474150.148:  -1907  78  10  769
1477474150.159:  -1908  78  10  769
1477474150.159:  -1848  78  10  769
1477474150.160:  -1784  78  10  769
1477474150.160:  -1738  78  10  769
1477474150.161:  -1682  78  10  769
1477474150.161:  -1588  78  10  769
1477474150.162:  -1472  78  10  769
1477474150.165:  -1381  78  10  769
1477474150.165:  -1337  78  10  769
1477474150.169:  -1312  78  10  769
1477474150.169:  -1263  78  10  769
1477474150.177:  -1191  78  10  769
1477474150.178:  -1148  78  10  769
1477474150.178:  -1185  78  10  769
1477474150.179:  -1271  78  10  769
1477474150.180:  -1312  78  10  769
1477474150.181:  -1241  78  10  769
1477474150.182:  -1096  78  10  769
1477474150.184:   -988  78  10  769
1477474150.188:   -986  78  10  769
1477474150.188:  -1042  78  10  769
1477474150.198:  -1057  78  10  769
1477474150.198:   -991  78  10  769
1477474150.198:   -907  78  10  769
1477474150.199:   -887  78  10  769
1477474150.200:   -949  78  10  769
1477474150.201:  -1041  78  10  769
1477474150.202:  -1104  78  10  769
1477474150.205:  -1123  78  10  769
1477474150.206:  -1113  78  10  769
1477474150.211:  -1090  78  10  769
1477474150.233:  -1069  78  10  769
1477474150.234:  -1065  78  10  769
1477474150.234:  -1093  78  10  769
1477474150.234:  -1137  78  10  769
1477474150.234:  -1147  78  10  769
1477474150.234:  -1097  78  10  769
1477474150.235:  -1027  78  10  769
1477474150.235:  -1038  78  10  769
1477474150.235:  -1206  78  10  769
1477474150.235:  -1518  78  10  769
1477474150.238:  -1867  78  10  769
1477474150.238:  -2143  78  10  769
1477474150.238:  -2306  78  10  769
1477474150.238:  -2381  78  10  769
1477474150.239:  -2390  78  10  769
1477474150.246:  -2303  78  10  769
1477474150.246:  -2067  78  10  769
1477474150.246:  -1669  78  10  769
1477474150.260:  -1162  78  10  769
1477474150.260:   -617  78  10  769
1477474150.260:    -86  78  10  769
1477474150.260:    398  78  10  769
1477474150.261:    776  78  10  769
1477474150.261:    965  78  10  769
1477474150.261:    923  78  10  769
1477474150.261:    720  78  10  769
1477474150.263:    534  78  10  769
1477474150.264:    544  78  10  769
1477474150.268:    794  78  10  769
1477474150.270:   1151  78  10  769
1477474150.288:   1418  78  10  769
1477474150.288:   1504  78  10  769
1477474150.288:   1489  78  10  769
1477474150.289:   1507  78  10  769
1477474150.289:   1568  78  10  769
1477474150.290:   1526  78  10  769
1477474150.290:   1214  78  10  769
1477474150.290:    621  78  10  769
1477474150.290:   -106  78  10  769
1477474150.291:   -779  78  10  769
1477474150.291:  -1291  78  10  769
1477474150.292:  -1619  78  10  769
1477474150.292:  -1774  78  10  769
1477474150.296:  -1786  78  10  769
1477474150.296:  -1714  78  10  769
1477474150.298:  -1634  78  10  769
1477474150.309:  -1582  78  10  769
1477474150.309:  -1538  78  10  769
1477474150.309:  -1479  78  10  769
1477474150.309:  -1427  78  10  769
1477474150.309:  -1429  78  10  769
1477474150.310:  -1500  78  10  769
1477474150.312:  -1592  78  10  769
1477474150.314:  -1653  78  10  769
1477474150.316:  -1674  78  10  769
1477474150.320:  -1676  78  10  769
1477474150.341:  -1664  78  10  769
1477474150.341:  -1617  78  10  769
1477474150.341:  -1526  78  10  769
1477474150.342:  -1431  78  10  769
1477474150.342:  -1393  78  10  769
1477474150.342:  -1447  78  10  769
1477474150.342:  -1556  78  10  769
1477474150.342:  -1647  78  10  769
1477474150.342:  -1668  78  10  769
1477474150.343:  -1627  78  10  769
1477474150.343:  -1569  78  10  769
1477474150.343:  -1530  78  10  769
1477474150.346:  -1518  78  10  769
1477474150.355:  -1519  78  10  769
1477474150.375:  -1527  78  10  769
1477474150.376:  -1536  78  10  769
1477474150.376:  -1544  78  10  769
1477474150.376:  -1547  78  10  769
1477474150.376:  -1548  78  10  769
1477474150.377:  -1555  78  10  769
1477474150.377:  -1571  78  10  769
1477474150.378:  -1591  78  10  769
1477474150.378:  -1611  78  10  769
1477474150.378:  -1620  78  10  769
1477474150.378:  -1616  78  10  769
1477474150.378:  -1602  78  10  769
1477474150.378:  -1591  78  10  769
1477474150.379:  -1606  78  10  769
1477474150.379:  -1649  78  10  769
1477474150.379:  -1693  78  10  769
1477474150.381:  -1697  78  10  769
1477474150.384:  -1660  78  10  769
1477474150.384:  -1623  78  10  769
1477474150.386:  -1634  78  10  769
1477474150.386:  -1701  78  10  769
1477474150.388:  -1772  78  10  769
1477474150.400:  -1792  78  10  769
1477474150.400:  -1755  78  10  769
1477474150.400:  -1709  78  10  769
1477474150.401:  -1700  78  10  769
1477474150.402:  -1733  78  10  769
1477474150.402:  -1776  78  10  769
1477474150.406:  -1801  78  10  769
1477474150.407:  -1803  78  10  769
1477474150.408:  -1798  78  10  769
1477474150.411:  -1797  78  10  769
1477474150.419:  -1799  78  10  769
1477474150.419:  -1805  78  10  769
1477474150.419:  -1824  78  10  769
1477474150.420:  -1856  78  10  769
1477474150.420:  -1885  78  10  769
1477474150.421:  -1890  78  10  769
1477474150.425:  -1874  78  10  769
1477474150.425:  -1859  78  10  769
1477474150.427:  -1861  78  10  769
1477474150.430:  -1880  78  10  769
1477474150.437:  -1908  78  10  769
1477474150.437:  -1943  78  10  769
1477474150.437:  -1971  78  10  769
1477474150.439:  -1979  78  10  769
1477474150.439:  -1970  78  10  769
1477474150.440:  -1975  78  10  769
1477474150.441:  -2029  78  10  769
1477474150.443:  -2116  78  10  769
1477474150.445:  -2170  78  10  769
1477474150.448:  -2156  78  10  769
1477474150.456:  -2117  78  10  769
1477474150.456:  -2131  78  10  769
1477474150.456:  -2213  78  10  769
1477474150.457:  -2295  78  10  769
1477474150.457:  -2307  78  10  769
1477474150.459:  -2262  78  10  769
1477474150.463:  -2236  78  10  769
1477474150.466:  -2286  79  10  763
1477474150.466:  -2384  79  10  763
1477474150.468:  -2470  79  10  763
1477474150.469:  -2510  79  10  763
1477474150.471:  -2512  79  10  763
1477474150.476:  -2501  79  10  763
1477474150.476:  -2500  79  10  763
1477474150.490:  -2526  79  10  763
1477474150.491:  -2580  79  10  763
1477474150.491:  -2638  79  10  763
1477474150.492:  -2668  79  10  763
1477474150.493:  -2665  79  10  763
1477474150.493:  -2659  79  10  763
1477474150.495:  -2689  79  10  763
1477474150.496:  -2755  79  10  763
1477474150.497:  -2828  79  10  763
1477474150.498:  -2877  79  10  763
1477474150.498:  -2901  79  10  763
1477474150.498:  -2918  79  10  763
1477474150.501:  -2934  79  10  763
1477474150.504:  -2949  79  10  763
1477474150.512:  -2959  79  10  763
1477474150.512:  -2970  79  10  763
1477474150.513:  -2983  79  10  763
1477474150.514:  -2990  79  10  763
1477474150.515:  -2990  79  10  763
1477474150.515:  -2983  79  10  763
1477474150.517:  -2978  79  10  763
1477474150.518:  -2976  79  10  763
1477474150.520:  -2975  79  10  763
1477474150.523:  -2965  79  10  763
1477474150.536:  -2947  79  10  763
1477474150.537:  -2919  79  10  763
1477474150.537:  -2884  79  10  763
1477474150.538:  -2842  79  10  763
1477474150.539:  -2791  79  10  763
1477474150.540:  -2736  79  10  763
1477474150.541:  -2676  79  10  763
1477474150.542:  -2612  79  10  763
1477474150.543:  -2537  79  10  763
1477474150.544:  -2452  79  10  763
1477474150.556:  -2367  79  10  763
1477474150.556:  -2294  79  10  763
1477474150.557:  -2227  79  10  763
1477474150.557:  -2148  79  10  763
1477474150.557:  -2046  79  10  763
1477474150.557:  -1943  79  10  763
1477474150.559:  -1867  79  10  763
1477474150.560:  -1818  79  10  763
1477474150.561:  -1761  79  10  763
1477474150.564:  -1666  79  10  763
1477474150.564:  -1549  79  10  763
1477474150.603:  -1455  79  10  763
1477474150.614:  -1411  79  10  763
1477474150.615:  -1391  79  10  763
1477474150.615:  -1350  79  10  763
1477474150.615:  -1272  79  10  763
1477474150.616:  -1187  79  10  763
1477474150.616:  -1128  79  10  763
1477474150.616:  -1093  79  10  763
1477474150.617:  -1056  79  10  763
1477474150.617:  -1006  79  10  763
1477474150.617:   -963  79  10  763
1477474150.617:   -946  79  10  763
1477474150.618:   -949  79  10  763
1477474150.618:   -948  79  10  763
1477474150.618:   -939  79  10  763
1477474150.619:   -948  79  10  763
1477474150.619:   -990  79  10  763
1477474150.619:  -1043  79  10  763
1477474150.619:  -1063  79  10  763
1477474150.619:  -1031  79  10  763
1477474150.619:   -974  79  10  763
1477474150.620:   -933  79  10  763
1477474150.620:   -926  79  10  763
1477474150.620:   -939  79  10  763
1477474150.620:   -951  79  10  763
1477474150.620:   -956  79  10  763
1477474150.621:   -961  79  10  763
1477474150.621:   -967  79  10  763
1477474150.621:   -972  79  10  763
1477474150.623:   -979  79  10  763
1477474150.624:   -991  79  10  763
1477474150.626:  -1002  79  10  763
1477474150.628:   -998  79  10  763
1477474150.631:   -967  79  10  763
1477474150.632:   -917  79  10  763
1477474150.635:   -874  79  10  763
1477474150.640:   -858  79  10  763
1477474150.651:   -875  79  10  763
1477474150.651:   -915  79  10  763
1477474150.652:   -969  79  10  763
1477474150.652:  -1023  79  10  763
1477474150.652:  -1063  79  10  763
1477474150.652:  -1076  79  10  763
1477474150.653:  -1069  79  10  763
1477474150.655:  -1068  79  10  763
1477474150.655:  -1088  79  10  763
1477474150.658:  -1113  79  10  763
1477474150.659:  -1107  79  10  763
1477474150.660:  -1058  79  10  763
1477474150.664:   -996  79  10  763
1477474150.665:   -975  79  10  763
1477474150.674:  -1017  79  10  763
1477474150.674:  -1090  79  10  763
1477474150.674:  -1141  79  10  763
1477474150.675:  -1157  79  10  763
1477474150.675:  -1162  79  10  763
1477474150.677:  -1185  79  10  763
1477474150.678:  -1214  79  10  763
1477474150.682:  -1218  79  10  763
1477474150.691:  -1186  79  10  763
1477474150.692:  -1142  79  10  763
1477474150.692:  -1115  79  10  763
1477474150.692:  -1102  79  10  763
1477474150.693:  -1084  79  10  763
1477474150.693:  -1054  79  10  763
1477474150.697:  -1036  79  10  763
1477474150.698:  -1053  79  10  763
1477474150.700:  -1106  79  10  763
1477474150.701:  -1169  79  10  763
1477474150.702:  -1216  79  10  763
1477474150.704:  -1240  79  10  763
1477474150.707:  -1245  79  10  763
1477474150.709:  -1235  79  10  763
1477474150.723:  -1213  79  10  763
1477474150.723:  -1184  79  10  763
1477474150.724:  -1150  79  10  763
1477474150.724:  -1109  79  10  763
1477474150.724:  -1060  79  10  763
1477474150.724:  -1017  79  10  763
1477474150.724:   -997  79  10  763
1477474150.724:  -1006  79  10  763
1477474150.725:  -1027  79  10  763
1477474150.727:  -1043  79  10  763
1477474150.729:  -1058  79  10  763
1477474150.731:  -1098  79  10  763
1477474150.743:  -1165  79  10  763
1477474150.743:  -1222  79  10  763
1477474150.743:  -1227  79  10  763
1477474150.743:  -1192  79  10  763
1477474150.743:  -1171  79  10  763
1477474150.743:  -1197  79  10  763
1477474150.746:  -1232  79  10  763
1477474150.747:  -1205  79  10  763
1477474150.751:  -1108  79  10  763
1477474150.751:  -1018  79  10  763
1477474150.752:  -1019  79  10  763
1477474150.757:  -1113  79  10  763
1477474150.767:  -1217  79  10  763
1477474150.811:  -1250  79  10  763
1477474150.811:  -1209  79  10  763
1477474150.812:  -1154  79  10  763
1477474150.812:  -1147  79  10  763
1477474150.812:  -1198  79  10  763
1477474150.813:  -1265  79  10  763
1477474150.813:  -1286  79  10  763
1477474150.813:  -1231  79  10  763
1477474150.813:  -1124  79  10  763
1477474150.826:  -1031  79  10  763
1477474150.826:  -1008  79  10  763
1477474150.827:  -1047  79  10  763
1477474150.827:  -1090  79  10  763
1477474150.827:  -1087  79  10  763
1477474150.827:  -1047  79  10  763
1477474150.827:  -1018  79  10  763
1477474150.827:  -1037  79  10  763
1477474150.827:  -1094  79  10  763
1477474150.828:  -1156  79  10  763
1477474150.828:  -1201  79  10  763
1477474150.828:  -1221  79  10  763
1477474150.828:  -1225  79  10  763
1477474150.828:  -1222  79  10  763
1477474150.828:  -1215  79  10  763
1477474150.829:  -1201  79  10  763
1477474150.829:  -1177  79  10  763
1477474150.829:  -1160  79  10  763
1477474150.829:  -1179  79  10  763
1477474150.829:  -1244  79  10  763
1477474150.830:  -1318  79  10  763
1477474150.830:  -1342  79  10  763
1477474150.830:  -1308  79  10  763
1477474150.830:  -1282  79  10  763
1477474150.830:  -1337  79  10  763
1477474150.831:  -1469  79  10  763
1477474150.831:  -1591  79  10  763
1477474150.831:  -1629  79  10  763
1477474150.831:  -1602  79  10  763
1477474150.832:  -1593  79  10  763
1477474150.834:  -1656  79  10  763
1477474150.837:  -1759  79  10  763
1477474150.842:  -1825  79  10  763
1477474150.842:  -1828  79  10  763
1477474150.843:  -1809  79  10  763
1477474150.845:  -1823  79  10  763
1477474150.847:  -1864  79  10  763
1477474150.848:  -1868  79  10  763
1477474150.852:  -1785  79  10  763
1477474150.855:  -1641  79  10  763
1477474150.856:  -1511  79  10  763
1477474150.858:  -1436  79  10  763
1477474150.861:  -1385  79  10  763
1477474150.866:  -1301  79  10  763
1477474150.871:  -1181  79  10  763
1477474150.871:  -1084  79  10  763
1477474150.872:  -1066  79  10  763
1477474150.873:  -1103  79  10  763
1477474150.897:  -1123  79  10  763
1477474150.898:  -1091  79  10  763
1477474150.901:  -1045  79  10  763
1477474150.901:  -1042  79  10  763
1477474150.901:  -1075  79  10  763
1477474150.902:  -1083  79  10  763
1477474150.902:  -1037  79  10  763
1477474150.904:   -982  79  10  763
1477474150.905:   -982  79  10  763
1477474150.905:  -1040  79  10  763
1477474150.905:  -1097  79  10  763
1477474150.906:  -1106  79  10  763
1477474150.906:  -1084  79  10  763
1477474150.906:  -1081  79  10  763
1477474150.907:  -1110  79  10  763
1477474150.907:  -1131  79  10  763
1477474150.907:  -1112  79  10  763
1477474150.910:  -1066  79  10  763
1477474150.911:  -1031  79  10  763
1477474150.913:  -1024  79  10  763
1477474150.926:  -1032  79  10  763
1477474150.927:  -1036  79  10  763
1477474150.927:  -1027  79  10  763
1477474150.927:  -1014  79  10  763
1477474150.928:  -1030  79  10  763
1477474150.928:  -1124  79  10  763
1477474150.929:  -1337  79  10  763
1477474150.930:  -1662  79  10  763
1477474150.931:  -2029  79  10  763
1477474150.931:  -2347  79  10  763
1477474150.932:  -2557  79  10  763
1477474150.933:  -2649  79  10  763
1477474150.934:  -2638  79  10  763
1477474150.938:  -2524  79  10  763
1477474150.947:  -2279  79  10  763
1477474150.947:  -1889  79  10  763
1477474150.948:  -1385  79  10  763
1477474150.949:   -848  79  10  763
1477474150.949:   -364  79  10  763
1477474150.949:      9  79  10  763
1477474150.954:    238  79  10  763
1477474150.954:    295  79  10  763
1477474150.954:    181  79  10  763
1477474150.957:    -15  79  10  763
1477474150.957:   -104  79  10  763
1477474150.962:     78  79  10  763
1477474150.963:    512  79  10  763
1477474150.966:    970  79  10  763
1477474150.966:   1223  79  10  763
1477474150.969:   1257  79  10  763
1477474150.969:   1268  79  10  763
1477474150.970:   1405  79  10  763
1477474150.976:   1560  79  10  763
1477474150.977:   1465  79  10  763
1477474150.994:    973  79  10  763
1477474150.995:    218  79  10  763
1477474150.996:   -517  79  10  763
1477474150.998:  -1038  79  10  763
1477474150.998:  -1340  79  10  763
1477474150.999:  -1509  79  10  763
1477474151.000:  -1596  79  10  763
1477474151.000:  -1594  79  10  763
1477474151.001:  -1511  79  10  763
1477474151.001:  -1388  79  10  763
1477474151.002:  -1276  79  10  763
1477474151.002:  -1204  79  10  763
1477474151.014:  -1181  79  10  763
1477474151.015:  -1204  79  10  763
1477474151.015:  -1268  79  10  763
1477474151.015:  -1358  79  10  763
1477474151.016:  -1447  79  10  763
1477474151.016:  -1512  79  10  763
1477474151.017:  -1528  79  10  763
1477474151.017:  -1485  79  10  763
1477474151.018:  -1398  79  10  763
1477474151.019:  -1312  79  10  763
1477474151.020:  -1270  79  10  763
1477474151.022:  -1286  79  10  763
1477474151.027:  -1338  79  10  763
1477474151.027:  -1397  79  10  763
1477474151.028:  -1443  79  10  763
1477474151.028:  -1468  79  10  763
1477474151.035:  -1465  79  10  763
1477474151.035:  -1434  79  10  763
1477474151.035:  -1391  79  10  763
1477474151.040:  -1359  79  10  763
1477474151.040:  -1355  79  10  763
1477474151.041:  -1375  79  10  763
1477474151.042:  -1404  79  10  763
1477474151.047:  -1428  79  10  763
1477474151.048:  -1439  79  10  763
1477474151.048:  -1437  79  10  763
1477474151.064:  -1426  79  10  763
1477474151.065:  -1420  79  10  763
1477474151.065:  -1424  79  10  763
1477474151.066:  -1430  79  10  763
1477474151.067:  -1424  79  10  763
1477474151.068:  -1408  79  10  763
1477474151.069:  -1400  79  10  763
1477474151.070:  -1415  79  10  763
1477474151.070:  -1444  79  10  763
1477474151.071:  -1465  79  10  763
1477474151.071:  -1464  79  10  763
1477474151.072:  -1453  79  10  763
1477474151.073:  -1451  79  10  763
1477474151.081:  -1464  79  10  763
1477474151.087:  -1478  79  10  763
1477474151.088:  -1481  79  10  763
1477474151.090:  -1465  79  10  763
1477474151.090:  -1451  79  10  763
1477474151.091:  -1459  79  10  763
1477474151.092:  -1498  79  10  763
1477474151.092:  -1544  79  10  763
1477474151.094:  -1568  79  10  763
1477474151.094:  -1564  79  10  763
1477474151.097:  -1565  79  10  763
1477474151.097:  -1598  79  10  763
1477474151.102:  -1654  79  10  763
1477474151.103:  -1685  79  10  763
1477474151.104:  -1666  79  10  763
1477474151.108:  -1624  79  10  763
1477474151.108:  -1613  79  10  763
1477474151.110:  -1649  79  10  763
1477474151.113:  -1689  79  10  763
1477474151.117:  -1693  79  10  763
1477474151.118:  -1671  79  10  763
1477474151.122:  -1664  79  10  763
1477474151.123:  -1697  79  10  763
1477474151.138:  -1746  79  10  763
1477474151.139:  -1771  79  10  763
1477474151.140:  -1770  79  10  763
1477474151.140:  -1775  79  10  763
1477474151.141:  -1802  79  10  763
1477474151.141:  -1840  79  10  763
1477474151.142:  -1865  79  10  763
1477474151.142:  -1877  79  10  763
1477474151.145:  -1889  79  10  763
1477474151.145:  -1910  79  10  763
1477474151.156:  -1933  79  10  763
1477474151.157:  -1947  79  10  763
1477474151.157:  -1956  79  10  763
1477474151.157:  -1973  79  10  763
1477474151.157:  -1996  79  10  763
1477474151.157:  -2013  79  10  763
1477474151.157:  -2019  79  10  763
1477474151.158:  -2027  79  10  763
1477474151.159:  -2048  79  10  763
1477474151.163:  -2081  79  10  763
1477474151.165:  -2112  79  10  763
1477474151.165:  -2137  79  10  763
1477474151.166:  -2164  79  10  763
1477474151.170:  -2199  79  10  763
1477474151.171:  -2233  79  10  763
1477474151.172:  -2253  79  10  763
1477474151.177:  -2263  79  10  763
1477474151.177:  -2280  79  10  763
1477474151.182:  -2315  79  10  763
1477474151.183:  -2357  79  10  763
1477474151.184:  -2387  79  10  763
1477474151.185:  -2403  79  10  763
1477474151.186:  -2421  79  10  763
1477474151.191:  -2453  79  10  763
1477474151.191:  -2497  80  10  752
1477474151.192:  -2532  80  10  752
1477474151.192:  -2541  80  10  752
1477474151.194:  -2530  80  10  752
1477474151.200:  -2521  80  10  752
1477474151.200:  -2530  80  10  752
1477474151.212:  -2548  80  10  752
1477474151.212:  -2558  80  10  752
1477474151.213:  -2547  80  10  752
1477474151.215:  -2525  80  10  752
1477474151.216:  -2508  80  10  752
1477474151.217:  -2504  80  10  752
1477474151.219:  -2508  80  10  752
1477474151.220:  -2505  80  10  752
1477474151.231:  -2492  80  10  752
1477474151.231:  -2473  80  10  752
1477474151.232:  -2453  80  10  752
1477474151.233:  -2436  80  10  752
1477474151.234:  -2425  80  10  752
1477474151.234:  -2410  80  10  752
1477474151.235:  -2378  80  10  752
1477474151.235:  -2325  80  10  752
1477474151.236:  -2262  80  10  752
1477474151.236:  -2206  80  10  752
1477474151.241:  -2157  80  10  752
1477474151.241:  -2096  80  10  752
1477474151.249:  -2014  80  10  752
1477474151.250:  -1923  80  10  752
1477474151.251:  -1846  80  10  752
1477474151.251:  -1792  80  10  752
1477474151.252:  -1748  80  10  752
1477474151.253:  -1694  80  10  752
1477474151.253:  -1623  80  10  752
1477474151.256:  -1547  80  10  752
1477474151.267:  -1481  80  10  752
1477474151.267:  -1430  80  10  752
1477474151.267:  -1394  80  10  752
1477474151.267:  -1362  80  10  752
1477474151.268:  -1318  80  10  752
1477474151.268:  -1257  80  10  752
1477474151.268:  -1186  80  10  752
1477474151.274:  -1131  80  10  752
1477474151.274:  -1108  80  10  752
1477474151.274:  -1108  80  10  752
1477474151.275:  -1101  80  10  752
1477474151.277:  -1070  80  10  752
1477474151.283:  -1022  80  10  752
1477474151.284:   -988  80  10  752
1477474151.289:   -983  80  10  752
1477474151.289:   -993  80  10  752
1477474151.289:   -990  80  10  752
1477474151.289:   -958  80  10  752
1477474151.291:   -916  80  10  752
1477474151.292:   -891  80  10  752
1477474151.295:   -898  80  10  752
1477474151.297:   -921  80  10  752
1477474151.299:   -936  80  10  752
1477474151.300:   -936  80  10  752
1477474151.305:   -932  80  10  752
1477474151.306:   -939  80  10  752
1477474151.331:   -950  80  10  752
1477474151.332:   -954  80  10  752
1477474151.333:   -952  80  10  752
1477474151.333:   -954  80  10  752
1477474151.334:   -968  80  10  752
1477474151.335:   -988  80  10  752
1477474151.335:   -997  80  10  752
1477474151.336:   -992  80  10  752
1477474151.337:   -989  80  10  752
1477474151.337:  -1004  80  10  752
1477474151.338:  -1033  80  10  752
1477474151.339:  -1055  80  10  752
1477474151.340:  -1057  80  10  752
1477474151.340:  -1045  80  10  752
1477474151.341:  -1041  80  10  752
1477474151.341:  -1050  80  10  752
1477474151.342:  -1059  80  10  752
1477474151.343:  -1062  80  10  752
1477474151.343:  -1067  80  10  752
1477474151.344:  -1088  80  10  752
1477474151.359:  -1115  80  10  752
1477474151.360:  -1124  80  10  752
1477474151.361:  -1102  80  10  752
1477474151.362:  -1076  80  10  752
1477474151.362:  -1083  80  10  752
1477474151.363:  -1120  80  10  752
1477474151.364:  -1145  80  10  752
1477474151.364:  -1120  80  10  752
1477474151.365:  -1060  80  10  752
1477474151.365:  -1019  80  10  752
1477474151.369:  -1028  80  10  752
1477474151.369:  -1066  80  10  752
1477474151.378:  -1093  80  10  752
1477474151.379:  -1094  80  10  752
1477474151.380:  -1083  80  10  752
1477474151.380:  -1076  80  10  752
1477474151.381:  -1075  80  10  752
1477474151.382:  -1076  80  10  752
1477474151.382:  -1081  80  10  752
1477474151.383:  -1091  80  10  752
1477474151.385:  -1092  80  10  752
1477474151.385:  -1073  80  10  752
1477474151.400:  -1041  80  10  752
1477474151.400:  -1021  80  10  752
1477474151.400:  -1028  80  10  752
1477474151.401:  -1044  80  10  752
1477474151.401:  -1039  80  10  752
1477474151.401:  -1007  80  10  752
1477474151.401:   -972  80  10  752
1477474151.402:   -957  80  10  752
1477474151.405:   -964  80  10  752
1477474151.409:   -972  80  10  752
1477474151.410:   -969  80  10  752
1477474151.411:   -957  80  10  752
1477474151.412:   -949  80  10  752
1477474151.413:   -955  80  10  752
1477474151.419:   -973  80  10  752
1477474151.420:   -993  80  10  752
1477474151.429:  -1001  80  10  752
1477474151.429:   -989  80  10  752
1477474151.429:   -964  80  10  752
1477474151.430:   -949  80  10  752
1477474151.430:   -954  80  10  752
1477474151.433:   -968  80  10  752
1477474151.433:   -963  80  10  752
1477474151.437:   -933  80  10  752
1477474151.437:   -902  80  10  752
1477474151.439:   -899  80  10  752
1477474151.449:   -923  80  10  752
1477474151.449:   -945  80  10  752
1477474151.450:   -944  80  10  752
1477474151.450:   -929  80  10  752
1477474151.450:   -927  80  10  752
1477474151.450:   -944  80  10  752
1477474151.451:   -961  80  10  752
1477474151.458:   -964  80  10  752
1477474151.458:   -959  80  10  752
1477474151.458:   -961  80  10  752
1477474151.460:   -977  80  10  752
1477474151.461:   -992  80  10  752
1477474151.470:   -995  80  10  752
1477474151.471:   -989  80  10  752
1477474151.471:   -983  80  10  752
1477474151.471:   -978  80  10  752
1477474151.472:   -972  80  10  752
1477474151.474:   -964  80  10  752
1477474151.475:   -956  80  10  752
1477474151.478:   -951  80  10  752
1477474151.479:   -943  80  10  752
1477474151.484:   -933  80  10  752
1477474151.484:   -927  80  10  752
1477474151.485:   -931  80  10  752
1477474151.487:   -940  80  10  752
1477474151.489:   -948  80  10  752
1477474151.491:   -952  80  10  752
1477474151.567:   -959  80  10  752
1477474151.593:   -966  80  10  752
1477474151.593:   -961  80  10  752
1477474151.594:   -938  80  10  752
1477474151.594:   -918  80  10  752
1477474151.594:   -926  80  10  752
1477474151.595:   -964  80  10  752
1477474151.595:  -1001  80  10  752
1477474151.595:  -1016  80  10  752
1477474151.596:  -1019  80  10  752
1477474151.596:  -1044  80  10  752
1477474151.596:  -1107  80  10  752
1477474151.597:  -1190  80  10  752
1477474151.598:  -1268  80  10  752
1477474151.598:  -1342  80  10  752
1477474151.598:  -1423  80  10  752
1477474151.599:  -1503  80  10  752
1477474151.599:  -1554  80  10  752
1477474151.599:  -1567  80  10  752
1477474151.599:  -1570  80  10  752
1477474151.600:  -1599  80  10  752
1477474151.600:  -1639  80  10  752
1477474151.600:  -1637  80  10  752
1477474151.600:  -1558  80  10  752
1477474151.601:  -1442  80  10  752
1477474151.601:  -1362  80  10  752
1477474151.601:  -1347  80  10  752
1477474151.601:  -1349  80  10  752
1477474151.602:  -1315  80  10  752
1477474151.602:  -1253  80  10  752
1477474151.602:  -1214  80  10  752
1477474151.602:  -1225  80  10  752
1477474151.603:  -1246  80  10  752
1477474151.603:  -1230  80  10  752
1477474151.603:  -1185  80  10  752
1477474151.632:  -1159  80  10  752
1477474151.632:  -1173  80  10  752
1477474151.633:  -1183  80  10  752
1477474151.633:  -1140  80  10  752
1477474151.634:  -1054  80  10  752
1477474151.634:   -981  80  10  752
1477474151.634:   -964  80  10  752
1477474151.634:   -993  80  10  752
1477474151.635:  -1033  80  10  752
1477474151.635:  -1059  80  10  752
1477474151.636:  -1073  80  10  752
1477474151.636:  -1079  80  10  752
1477474151.636:  -1089  80  10  752
1477474151.637:  -1112  80  10  752
1477474151.639:  -1155  80  10  752
1477474151.640:  -1203  80  10  752
1477474151.640:  -1215  80  10  752
1477474151.640:  -1175  80  10  752
1477474151.641:  -1114  80  10  752
1477474151.641:  -1085  80  10  752
1477474151.653:  -1101  80  10  752
1477474151.653:  -1129  80  10  752
1477474151.657:  -1151  80  10  752
1477474151.658:  -1207  80  10  752
1477474151.658:  -1367  80  10  752
1477474151.659:  -1655  80  10  752
1477474151.660:  -1988  80  10  752
1477474151.660:  -2244  80  10  752
1477474151.661:  -2342  80  10  752
1477474151.662:  -2290  80  10  752
1477474151.672:  -2138  80  10  752
1477474151.673:  -1924  80  10  752
1477474151.673:  -1642  80  10  752
1477474151.674:  -1273  80  10  752
1477474151.675:   -836  80  10  752
1477474151.675:   -397  80  10  752
1477474151.676:    -46  80  10  752
1477474151.677:    142  80  10  752
1477474151.677:    133  80  10  752
1477474151.677:    -72  80  10  752
1477474151.678:   -434  80  10  752
1477474151.679:   -850  80  10  752
1477474151.690:  -1159  80  10  752
1477474151.690:  -1201  80  10  752
1477474151.691:   -934  80  10  752
1477474151.691:   -489  80  10  752
1477474151.691:    -72  80  10  752
1477474151.692:    212  80  10  752
1477474151.692:    425  80  10  752
1477474151.693:    690  80  10  752
1477474151.693:    992  80  10  752
1477474151.694:   1149  80  10  752
1477474151.694:    968  80  10  752
1477474151.694:    441  80  10  752
1477474151.695:   -236  80  10  752
1477474151.695:   -824  80  10  752
1477474151.696:  -1211  80  10  752
1477474151.696:  -1431  80  10  752
1477474151.697:  -1558  80  10  752
1477474151.697:  -1618  80  10  752
1477474151.698:  -1606  80  10  752
1477474151.698:  -1538  80  10  752
1477474151.699:  -1455  80  10  752
1477474151.699:  -1396  80  10  752
1477474151.699:  -1359  80  10  752
1477474151.700:  -1331  80  10  752
1477474151.700:  -1322  80  10  752
1477474151.701:  -1362  80  10  752
1477474151.701:  -1457  80  10  752
1477474151.702:  -1564  80  10  752
1477474151.704:  -1623  80  10  752
1477474151.704:  -1607  80  10  752
1477474151.705:  -1537  80  10  752
1477474151.705:  -1455  80  10  752
1477474151.709:  -1391  80  10  752
1477474151.715:  -1358  80  10  752
1477474151.727:  -1360  80  10  752
1477474151.728:  -1399  80  10  752
1477474151.728:  -1463  80  10  752
1477474151.728:  -1520  80  10  752
1477474151.729:  -1543  80  10  752
1477474151.729:  -1528  80  10  752
1477474151.730:  -1489  80  10  752
1477474151.730:  -1442  80  10  752
1477474151.730:  -1404  80  10  752
1477474151.731:  -1387  80  10  752
1477474151.731:  -1396  80  10  752
1477474151.733:  -1422  80  10  752
1477474151.734:  -1442  80  10  752
1477474151.736:  -1442  80  10  752
1477474151.741:  -1431  80  10  752
1477474151.743:  -1429  80  10  752
1477474151.747:  -1440  80  10  752
1477474151.747:  -1453  80  10  752
1477474151.748:  -1457  80  10  752
1477474151.749:  -1457  80  10  752
1477474151.750:  -1472  80  10  752
1477474151.752:  -1503  80  10  752
1477474151.757:  -1533  80  10  752
1477474151.757:  -1539  80  10  752
1477474151.764:  -1520  80  10  752
1477474151.765:  -1501  80  10  752
1477474151.765:  -1506  80  10  752
1477474151.765:  -1532  80  10  752
1477474151.767:  -1551  80  10  752
1477474151.770:  -1543  80  10  752
1477474151.770:  -1522  80  10  752
1477474151.774:  -1524  80  10  752
1477474151.775:  -1562  80  10  752
1477474151.775:  -1608  80  10  752
1477474151.778:  -1627  80  10  752
1477474151.780:  -1615  80  10  752
1477474151.785:  -1604  80  10  752
1477474151.786:  -1626  80  10  752
1477474151.799:  -1661  80  10  752
1477474151.800:  -1668  80  10  752
1477474151.801:  -1637  80  10  752
1477474151.801:  -1605  80  10  752
1477474151.802:  -1611  80  10  752
1477474151.803:  -1649  80  10  752
1477474151.803:  -1675  80  10  752
1477474151.804:  -1662  80  10  752
1477474151.805:  -1637  80  10  752
1477474151.805:  -1649  80  10  752
1477474151.816:  -1707  80  10  752
1477474151.817:  -1775  80  10  752
1477474151.818:  -1810  80  10  752
1477474151.819:  -1811  80  10  752
1477474151.821:  -1807  80  10  752
1477474151.822:  -1822  80  10  752
1477474151.823:  -1851  80  10  752
1477474151.824:  -1873  80  10  752
1477474151.824:  -1885  80  10  752
1477474151.827:  -1899  80  10  752
1477474151.828:  -1922  80  10  752
1477474151.828:  -1947  80  10  752
1477474151.829:  -1963  80  10  752
1477474151.830:  -1976  80  10  752
1477474151.833:  -2004  80  10  752
1477474151.836:  -2056  80  10  752
1477474151.853:  -2117  80  10  752
1477474151.853:  -2164  80  10  752
1477474151.855:  -2192  80  10  752
1477474151.856:  -2214  80  10  752
1477474151.859:  -2239  80  10  752
1477474151.859:  -2268  80  10  752
1477474151.872:  -2293  80  10  752
1477474151.872:  -2319  80  10  752
1477474151.874:  -2356  80  10  752
1477474151.875:  -2402  80  10  752
1477474151.875:  -2440  80  10  752
1477474151.877:  -2458  80  10  752
1477474151.889:  -2471  80  10  752
1477474151.890:  -2501  80  10  752
1477474151.890:  -2548  80  10  752
1477474151.891:  -2583  80  10  752
1477474151.891:  -2592  80  10  752
1477474151.891:  -2591  80  10  752
1477474151.892:  -2611  80  10  752
1477474151.892:  -2656  80  10  752
1477474151.892:  -2695  80  10  752
1477474151.892:  -2704  80  10  752
1477474151.893:  -2700  80  10  752
1477474151.893:  -2720  80  10  752
1477474151.893:  -2769  80  10  752
1477474151.894:  -2815  82  11  746
1477474151.895:  -2823  82  11  746
1477474151.895:  -2799  82  11  746
1477474151.895:  -2777  82  11  746
1477474151.896:  -2784  82  11  746
1477474151.900:  -2808  82  11  746
1477474151.901:  -2817  82  11  746
1477474151.901:  -2795  82  11  746
1477474151.902:  -2750  82  11  746
1477474151.903:  -2703  82  11  746
1477474151.908:  -2665  82  11  746
1477474151.908:  -2634  82  11  746
1477474151.910:  -2601  82  11  746
1477474151.911:  -2558  82  11  746
1477474151.912:  -2504  82  11  746
1477474151.915:  -2446  82  11  746
1477474151.917:  -2389  82  11  746
1477474151.919:  -2327  82  11  746
1477474151.921:  -2245  82  11  746
1477474151.923:  -2146  82  11  746
1477474151.927:  -2043  82  11  746
1477474151.927:  -1955  82  11  746
1477474151.930:  -1884  82  11  746
1477474151.947:  -1814  82  11  746
1477474151.948:  -1730  82  11  746
1477474151.948:  -1635  82  11  746
1477474151.949:  -1549  82  11  746
1477474151.950:  -1483  82  11  746
1477474151.952:  -1436  82  11  746
1477474151.954:  -1393  82  11  746
1477474151.955:  -1349  82  11  746
1477474151.955:  -1299  82  11  746
1477474151.957:  -1240  82  11  746
1477474151.957:  -1174  82  11  746
1477474151.957:  -1107  82  11  746
1477474151.957:  -1052  82  11  746
1477474151.958:  -1013  82  11  746
1477474151.958:   -983  82  11  746
1477474151.960:   -946  82  11  746
1477474151.971:   -899  82  11  746
1477474151.973:   -856  82  11  746
1477474151.973:   -836  82  11  746
1477474151.974:   -842  82  11  746
1477474151.974:   -860  82  11  746
1477474151.975:   -868  82  11  746
1477474151.980:   -856  82  11  746
1477474151.980:   -834  82  11  746
1477474151.990:   -822  82  11  746
1477474151.991:   -825  82  11  746
1477474151.992:   -833  82  11  746
1477474151.992:   -831  82  11  746
1477474151.993:   -812  82  11  746
1477474151.994:   -793  82  11  746
1477474151.994:   -799  82  11  746
1477474151.995:   -835  82  11  746
1477474151.996:   -869  82  11  746
1477474151.997:   -862  82  11  746
1477474151.999:   -816  82  11  746
1477474152.000:   -778  82  11  746
1477474152.000:   -791  82  11  746
1477474152.003:   -844  82  11  746
1477474152.004:   -880  82  11  746
1477474152.009:   -858  82  11  746
1477474152.009:   -805  82  11  746
1477474152.011:   -782  82  11  746
1477474152.013:   -817  82  11  746
1477474152.014:   -873  82  11  746
1477474152.017:   -897  82  11  746
1477474152.018:   -886  82  11  746
1477474152.023:   -880  82  11  746
1477474152.023:   -910  82  11  746
1477474152.036:   -952  82  11  746
1477474152.040:   -969  82  11  746
1477474152.041:   -952  82  11  746
1477474152.041:   -937  82  11  746
1477474152.042:   -954  82  11  746
1477474152.043:   -993  82  11  746
1477474152.045:  -1011  82  11  746
1477474152.045:   -987  82  11  746
1477474152.055:   -940  82  11  746
1477474152.056:   -909  82  11  746
1477474152.057:   -914  82  11  746
1477474152.058:   -943  82  11  746
1477474152.058:   -974  82  11  746
1477474152.059:   -989  82  11  746
1477474152.061:   -986  82  11  746
1477474152.062:   -971  82  11  746
1477474152.062:   -957  82  11  746
1477474152.063:   -961  82  11  746
1477474152.064:   -992  82  11  746
1477474152.065:  -1037  82  11  746
1477474152.065:  -1062  82  11  746
1477474152.068:  -1046  82  11  746
1477474152.068:  -1002  82  11  746
1477474152.070:   -967  82  11  746
1477474152.070:   -971  82  11  746
1477474152.073:  -1005  82  11  746
1477474152.085:  -1029  82  11  746
1477474152.086:  -1018  82  11  746
1477474152.087:   -985  82  11  746
1477474152.087:   -967  82  11  746
1477474152.087:   -981  82  11  746
1477474152.087:  -1006  82  11  746
1477474152.088:  -1008  82  11  746
1477474152.090:   -980  82  11  746
1477474152.091:   -951  82  11  746
1477474152.096:   -953  82  11  746
1477474152.105:   -984  82  11  746
1477474152.105:  -1008  82  11  746
1477474152.105:   -994  82  11  746
1477474152.105:   -952  82  11  746
1477474152.105:   -926  82  11  746
1477474152.108:   -949  82  11  746
1477474152.116:  -1000  82  11  746
1477474152.116:  -1033  82  11  746
1477474152.116:  -1022  82  11  746
1477474152.116:   -989  82  11  746
1477474152.118:   -980  82  11  746
1477474152.118:  -1011  82  11  746
1477474152.145:  -1059  82  11  746
1477474152.146:  -1089  82  11  746
1477474152.147:  -1092  82  11  746
1477474152.148:  -1079  82  11  746
1477474152.148:  -1071  82  11  746
1477474152.149:  -1069  82  11  746
1477474152.149:  -1066  82  11  746
1477474152.150:  -1058  82  11  746
1477474152.151:  -1041  82  11  746
1477474152.151:  -1021  82  11  746
1477474152.151:  -1005  82  11  746
1477474152.152:  -1000  82  11  746
1477474152.152:  -1002  82  11  746
1477474152.153:   -997  82  11  746
1477474152.153:   -977  82  11  746
1477474152.157:   -960  82  11  746
1477474152.166:   -975  82  11  746
1477474152.178:  -1026  82  11  746
1477474152.184:  -1070  82  11  746
1477474152.185:  -1069  82  11  746
1477474152.185:  -1034  82  11  746
1477474152.187:  -1017  82  11  746
1477474152.187:  -1046  82  11  746
1477474152.190:  -1094  82  11  746
1477474152.201:  -1110  82  11  746
1477474152.272:  -1081  82  11  746
1477474152.273:  -1038  82  11  746
1477474152.273:  -1010  82  11  746
1477474152.274:  -1004  82  11  746
1477474152.274:  -1011  82  11  746
1477474152.274:  -1033  82  11  746
1477474152.274:  -1071  82  11  746
1477474152.274:  -1100  82  11  746
1477474152.275:  -1095  82  11  746
1477474152.275:  -1069  82  11  746
1477474152.275:  -1076  82  11  746
1477474152.275:  -1152  82  11  746
1477474152.276:  -1259  82  11  746
1477474152.277:  -1325  82  11  746
1477474152.277:  -1318  82  11  746
1477474152.278:  -1278  82  11  746
1477474152.279:  -1269  82  11  746
1477474152.279:  -1311  82  11  746
1477474152.279:  -1375  82  11  746
1477474152.280:  -1422  82  11  746
1477474152.280:  -1452  82  11  746
1477474152.280:  -1486  82  11  746
1477474152.280:  -1536  82  11  746
1477474152.280:  -1586  82  11  746
1477474152.280:  -1611  82  11  746
1477474152.280:  -1608  82  11  746
1477474152.281:  -1596  82  11  746
1477474152.281:  -1591  82  11  746
1477474152.281:  -1579  82  11  746
1477474152.281:  -1526  82  11  746
1477474152.281:  -1420  82  11  746
1477474152.281:  -1297  82  11  746
1477474152.281:  -1212  82  11  746
1477474152.282:  -1185  82  11  746
1477474152.282:  -1182  82  11  746
1477474152.282:  -1158  82  11  746
1477474152.282:  -1107  82  11  746
1477474152.282:  -1065  82  11  746
1477474152.282:  -1057  82  11  746
1477474152.282:  -1062  82  11  746
1477474152.282:  -1048  82  11  746
1477474152.283:  -1008  82  11  746
1477474152.283:   -976  82  11  746
1477474152.283:   -966  82  11  746
1477474152.283:   -960  82  11  746
1477474152.283:   -930  82  11  746
1477474152.283:   -879  82  11  746
1477474152.284:   -847  82  11  746
1477474152.284:   -865  82  11  746
1477474152.284:   -923  82  11  746
1477474152.284:   -977  82  11  746
1477474152.284:   -994  82  11  746
1477474152.284:   -976  82  11  746
1477474152.284:   -960  82  11  746
1477474152.285:   -971  82  11  746
1477474152.285:  -1003  82  11  746
1477474152.285:  -1027  82  11  746
1477474152.285:  -1019  82  11  746
1477474152.285:   -986  82  11  746
1477474152.285:   -955  82  11  746
1477474152.285:   -949  82  11  746
1477474152.287:   -970  82  11  746
1477474152.289:  -1011  82  11  746
1477474152.305:  -1091  82  11  746
1477474152.305:  -1248  82  11  746
1477474152.305:  -1508  82  11  746
1477474152.306:  -1830  82  11  746
1477474152.306:  -2112  82  11  746
1477474152.306:  -2262  82  11  746
1477474152.306:  -2255  82  11  746
1477474152.308:  -2143  82  11  746
1477474152.308:  -1992  82  11  746
1477474152.312:  -1809  82  11  746
1477474152.312:  -1541  82  11  746
1477474152.316:  -1147  82  11  746
1477474152.318:   -678  82  11  746
1477474152.320:   -271  82  11  746
1477474152.322:    -49  82  11  746
1477474152.322:    -47  82  11  746
1477474152.335:   -211  82  11  746
1477474152.335:   -460  82  11  746
1477474152.335:   -730  82  11  746
1477474152.335:   -935  82  11  746
1477474152.336:   -967  82  11  746
1477474152.336:   -754  82  11  746
1477474152.336:   -347  82  11  746
1477474152.337:    102  82  11  746
1477474152.339:    470  82  11  746
1477474152.343:    758  82  11  746
1477474152.352:   1035  82  11  746
1477474152.352:   1294  82  11  746
1477474152.353:   1402  82  11  746
1477474152.353:   1219  82  11  746
1477474152.354:    735  82  11  746
1477474152.354:     94  82  11  746
1477474152.359:   -522  82  11  746
1477474152.361:   -998  82  11  746
1477474152.369:  -1313  82  11  746
1477474152.371:  -1487  82  11  746
1477474152.371:  -1552  82  11  746
1477474152.372:  -1533  82  11  746
1477474152.373:  -1458  82  11  746
1477474152.374:  -1351  82  11  746
1477474152.375:  -1238  82  11  746
1477474152.376:  -1149  82  11  746
1477474152.386:  -1100  82  11  746
1477474152.387:  -1089  82  11  746
1477474152.387:  -1114  82  11  746
1477474152.388:  -1172  82  11  746
1477474152.388:  -1264  82  11  746
1477474152.388:  -1364  82  11  746
1477474152.391:  -1417  82  11  746
1477474152.392:  -1387  82  11  746
1477474152.393:  -1293  82  11  746
1477474152.394:  -1202  82  11  746
1477474152.404:  -1157  82  11  746
1477474152.405:  -1163  82  11  746
1477474152.406:  -1203  82  11  746
1477474152.408:  -1262  82  11  746
1477474152.409:  -1324  82  11  746
1477474152.409:  -1358  82  11  746
1477474152.410:  -1344  82  11  746
1477474152.411:  -1298  82  11  746
1477474152.421:  -1267  82  11  746
1477474152.422:  -1266  82  11  746
1477474152.423:  -1272  82  11  746
1477474152.423:  -1265  82  11  746
1477474152.424:  -1258  82  11  746
1477474152.426:  -1282  82  11  746
1477474152.427:  -1327  82  11  746
1477474152.427:  -1344  82  11  746
1477474152.438:  -1318  82  11  746
1477474152.439:  -1289  82  11  746
1477474152.439:  -1310  82  11  746
1477474152.439:  -1368  82  11  746
1477474152.439:  -1398  82  11  746
1477474152.439:  -1364  82  11  746
1477474152.439:  -1314  82  11  746
1477474152.440:  -1322  82  11  746
1477474152.441:  -1389  82  11  746
1477474152.445:  -1438  82  11  746
1477474152.448:  -1412  82  11  746
1477474152.449:  -1346  82  11  746
1477474152.452:  -1324  82  11  746
1477474152.453:  -1373  82  11  746
1477474152.455:  -1438  82  11  746
1477474152.457:  -1454  82  11  746
1477474152.458:  -1427  82  11  746
1477474152.460:  -1418  82  11  746
1477474152.461:  -1453  82  11  746
1477474152.463:  -1496  82  11  746
1477474152.477:  -1497  82  11  746
1477474152.478:  -1472  82  11  746
1477474152.479:  -1466  82  11  746
1477474152.479:  -1497  82  11  746
1477474152.480:  -1532  82  11  746
1477474152.481:  -1533  82  11  746
1477474152.484:  -1514  82  11  746
1477474152.487:  -1514  82  11  746
1477474152.496:  -1545  82  11  746
1477474152.497:  -1578  82  11  746
1477474152.498:  -1587  82  11  746
1477474152.499:  -1578  82  11  746
1477474152.499:  -1580  82  11  746
1477474152.500:  -1602  82  11  746
1477474152.502:  -1631  82  11  746
1477474152.502:  -1655  82  11  746
1477474152.513:  -1678  82  11  746
1477474152.515:  -1705  82  11  746
1477474152.516:  -1729  82  11  746
1477474152.518:  -1741  82  11  746
1477474152.518:  -1752  82  11  746
1477474152.519:  -1779  82  11  746
1477474152.520:  -1826  82  11  746
1477474152.521:  -1871  82  11  746
1477474152.522:  -1894  82  11  746
1477474152.523:  -1902  82  11  746
1477474152.524:  -1915  82  11  746
1477474152.524:  -1946  82  11  746
1477474152.526:  -1990  82  11  746
1477474152.527:  -2036  82  11  746
1477474152.527:  -2080  82  11  746
1477474152.527:  -2121  82  11  746
1477474152.528:  -2152  82  11  746
1477474152.531:  -2173  82  11  746
1477474152.546:  -2191  82  11  746
1477474152.548:  -2222  82  11  746
1477474152.548:  -2266  82  11  746
1477474152.550:  -2310  82  11  746
1477474152.551:  -2339  82  11  746
1477474152.551:  -2356  82  11  746
1477474152.551:  -2376  82  11  746
1477474152.552:  -2409  82  11  746
1477474152.553:  -2450  82  11  746
1477474152.554:  -2489  82  11  746
1477474152.555:  -2523  82  11  746
1477474152.555:  -2553  82  11  746
1477474152.566:  -2576  82  11  746
1477474152.566:  -2591  82  11  746
1477474152.566:  -2608  82  11  746
1477474152.567:  -2637  82  11  746
1477474152.567:  -2677  82  11  746
1477474152.567:  -2711  82  11  746
1477474152.567:  -2725  82  11  746
1477474152.569:  -2731  82  11  746
1477474152.571:  -2751  82  11  746
1477474152.576:  -2787  82  11  746
1477474152.586:  -2813  82  11  746
1477474152.588:  -2806  82  11  746
1477474152.613:  -2781  82  11  746
1477474152.616:  -2770  82  11  746
1477474152.618:  -2781  82  11  746
1477474152.619:  -2785  82  11  746
1477474152.620:  -2754  82  11  746
1477474152.621:  -2704  82  11  746
1477474152.623:  -2674  82  11  746
1477474152.623:  -2670  82  11  746
1477474152.623:  -2649  82  11  746
1477474152.623:  -2575  82  11  746
1477474152.624:  -2469  82  11  746
1477474152.624:  -2389  82  11  746
1477474152.624:  -2354  82  11  746
1477474152.624:  -2314  82  11  746
1477474152.625:  -2216  82  11  746
1477474152.625:  -2073  82  11  746
1477474152.642:  -1952  82  11  746
1477474152.643:  -1887  82  11  746
1477474152.646:  -1841  83  11  744
1477474152.647:  -1761  83  11  744
1477474152.648:  -1647  83  11  744
1477474152.649:  -1552  83  11  744
1477474152.650:  -1501  83  11  744
1477474152.650:  -1460  83  11  744
1477474152.651:  -1387  83  11  744
1477474152.651:  -1285  83  11  744
1477474152.652:  -1193  83  11  744
1477474152.652:  -1127  83  11  744
1477474152.652:  -1066  83  11  744
1477474152.653:   -993  83  11  744
1477474152.654:   -923  83  11  744
1477474152.654:   -879  83  11  744
1477474152.655:   -853  83  11  744
1477474152.655:   -818  83  11  744
1477474152.656:   -771  83  11  744
1477474152.657:   -738  83  11  744
1477474152.668:   -741  83  11  744
1477474152.669:   -764  83  11  744
1477474152.669:   -770  83  11  744
1477474152.670:   -747  83  11  744
1477474152.671:   -710  83  11  744
1477474152.672:   -684  83  11  744
1477474152.672:   -675  83  11  744
1477474152.673:   -672  83  11  744
1477474152.674:   -665  83  11  744
1477474152.674:   -649  83  11  744
1477474152.675:   -625  83  11  744
1477474152.676:   -606  83  11  744
1477474152.677:   -604  83  11  744
1477474152.677:   -626  83  11  744
1477474152.677:   -659  83  11  744
1477474152.680:   -685  83  11  744
1477474152.681:   -697  83  11  744
1477474152.682:   -701  83  11  744
1477474152.685:   -703  83  11  744
1477474152.686:   -704  83  11  744
1477474152.700:   -699  83  11  744
1477474152.701:   -696  83  11  744
1477474152.702:   -701  83  11  744
1477474152.703:   -710  83  11  744
1477474152.705:   -715  83  11  744
1477474152.707:   -713  83  11  744
1477474152.719:   -710  83  11  744
1477474152.720:   -709  83  11  744
1477474152.723:   -711  83  11  744
1477474152.724:   -717  83  11  744
1477474152.725:   -729  83  11  744
1477474152.725:   -753  83  11  744
1477474152.726:   -776  83  11  744
1477474152.726:   -786  83  11  744
1477474152.727:   -788  83  11  744
1477474152.728:   -794  83  11  744
1477474152.729:   -812  83  11  744
1477474152.730:   -830  83  11  744
1477474152.731:   -837  83  11  744
1477474152.731:   -836  83  11  744
1477474152.732:   -837  83  11  744
1477474152.733:   -848  83  11  744
1477474152.734:   -859  83  11  744
1477474152.734:   -856  83  11  744
1477474152.735:   -846  83  11  744
1477474152.737:   -851  83  11  744
1477474152.740:   -879  83  11  744
1477474152.741:   -914  83  11  744
1477474152.743:   -926  83  11  744
1477474152.745:   -904  83  11  744
1477474152.759:   -876  83  11  744
1477474152.759:   -882  83  11  744
1477474152.759:   -925  83  11  744
1477474152.759:   -965  83  11  744
1477474152.759:   -961  83  11  744
1477474152.759:   -915  83  11  744
1477474152.760:   -877  83  11  744
1477474152.761:   -886  83  11  744
1477474152.764:   -928  83  11  744
1477474152.765:   -956  83  11  744
1477474152.766:   -946  83  11  744
1477474152.768:   -925  83  11  744
1477474152.773:   -925  83  11  744
1477474152.773:   -945  83  11  744
1477474152.777:   -963  83  11  744
1477474152.777:   -964  83  11  744
1477474152.780:   -960  83  11  744
1477474152.781:   -967  83  11  744
1477474152.782:   -977  83  11  744
1477474152.785:   -980  83  11  744
1477474152.786:   -977  83  11  744
1477474152.790:   -975  83  11  744
1477474152.804:   -980  83  11  744
1477474152.805:   -981  83  11  744
1477474152.805:   -971  83  11  744
1477474152.805:   -958  83  11  744
1477474152.806:   -953  83  11  744
1477474152.806:   -952  83  11  744
1477474152.807:   -939  83  11  744
1477474152.807:   -914  83  11  744
1477474152.807:   -898  83  11  744
1477474152.808:   -910  83  11  744
1477474152.810:   -934  83  11  744
1477474152.812:   -937  83  11  744
1477474152.813:   -908  83  11  744
1477474152.818:   -881  83  11  744
1477474152.818:   -905  83  11  744
1477474152.819:   -979  83  11  744
1477474152.823:  -1044  83  11  744
1477474152.824:  -1038  83  11  744
1477474152.838:   -967  83  11  744
1477474152.838:   -905  83  11  744
1477474152.838:   -911  83  11  744
1477474152.838:   -969  83  11  744
1477474152.838:  -1004  83  11  744
1477474152.839:   -978  83  11  744
1477474152.840:   -923  83  11  744
1477474152.841:   -906  83  11  744
1477474152.842:   -942  83  11  744
1477474152.845:   -992  83  11  744
1477474152.845:  -1018  83  11  744
1477474152.847:  -1023  83  11  744
1477474152.857:  -1034  83  11  744
1477474152.857:  -1049  83  11  744
1477474152.857:  -1040  83  11  744
1477474152.857:  -1001  83  11  744
1477474152.857:   -976  83  11  744
1477474152.859:  -1008  83  11  744
1477474152.861:  -1080  83  11  744
1477474152.864:  -1134  83  11  744
1477474152.868:  -1138  83  11  744
1477474152.868:  -1128  83  11  744
1477474152.871:  -1160  83  11  744
1477474152.871:  -1241  83  11  744
1477474152.881:  -1326  83  11  744
1477474152.881:  -1374  83  11  744
1477474152.881:  -1398  83  11  744
1477474152.881:  -1437  83  11  744
1477474152.882:  -1504  83  11  744
1477474152.883:  -1568  83  11  744
1477474152.885:  -1598  83  11  744
1477474152.886:  -1599  83  11  744
1477474152.888:  -1599  83  11  744
1477474152.891:  -1601  83  11  744
1477474152.895:  -1579  83  11  744
1477474152.895:  -1505  83  11  744
1477474152.912:  -1395  83  11  744
1477474152.914:  -1288  83  11  744
1477474152.915:  -1211  83  11  744
1477474152.916:  -1157  83  11  744
1477474152.917:  -1103  83  11  744
1477474152.917:  -1048  83  11  744
1477474152.918:  -1007  83  11  744
1477474152.918:   -993  83  11  744
1477474152.918:   -996  83  11  744
1477474152.918:   -998  83  11  744
1477474152.919:   -988  83  11  744
1477474152.919:   -965  83  11  744
1477474152.923:   -931  83  11  744
1477474152.923:   -884  83  11  744
1477474152.934:   -826  83  11  744
1477474152.934:   -769  83  11  744
1477474152.935:   -728  83  11  744
1477474152.935:   -704  83  11  744
1477474152.935:   -686  83  11  744
1477474152.937:   -674  83  11  744
1477474152.937:   -683  83  11  744
1477474152.938:   -722  83  11  744
1477474152.940:   -773  83  11  744
1477474152.941:   -801  83  11  744
1477474152.952:   -800  83  11  744
1477474153.028:   -799  83  11  744
1477474153.035:   -823  83  11  744
1477474153.035:   -859  83  11  744
1477474153.035:   -867  83  11  744
1477474153.035:   -845  83  11  744
1477474153.035:   -833  83  11  744
1477474153.035:   -854  83  11  744
1477474153.035:   -880  83  11  744
1477474153.036:   -878  83  11  744
1477474153.036:   -885  83  11  744
1477474153.036:   -994  83  11  744
1477474153.036:  -1255  83  11  744
1477474153.036:  -1593  83  11  744
1477474153.036:  -1871  83  11  744
1477474153.037:  -2013  83  11  744
1477474153.037:  -2040  83  11  744
1477474153.037:  -2000  83  11  744
1477474153.037:  -1886  83  11  744
1477474153.037:  -1654  83  11  744
1477474153.038:  -1298  83  11  744
1477474153.038:   -867  83  11  744
1477474153.038:   -425  83  11  744
1477474153.038:    -11  83  11  744
1477474153.038:    342  83  11  744
1477474153.038:    567  83  11  744
1477474153.039:    593  83  11  744
1477474153.039:    404  83  11  744
1477474153.039:     96  83  11  744
1477474153.039:   -150  83  11  744
1477474153.039:   -165  83  11  744
1477474153.039:     95  83  11  744
1477474153.039:    515  83  11  744
1477474153.040:    909  83  11  744
1477474153.040:   1161  83  11  744
1477474153.040:   1310  83  11  744
1477474153.040:   1469  83  11  744
1477474153.040:   1653  83  11  744
1477474153.041:   1729  83  11  744
1477474153.041:   1525  83  11  744
1477474153.041:   1007  83  11  744
1477474153.041:    317  83  11  744
1477474153.041:   -344  83  11  744
1477474153.041:   -855  83  11  744
1477474153.042:  -1199  83  11  744
1477474153.042:  -1392  83  11  744
1477474153.042:  -1445  83  11  744
1477474153.042:  -1382  83  11  744
1477474153.042:  -1270  83  11  744
1477474153.042:  -1179  83  11  744
1477474153.043:  -1127  83  11  744
1477474153.043:  -1084  83  11  744
1477474153.046:  -1026  83  11  744
1477474153.047:   -974  83  11  744
1477474153.056:   -984  83  11  744
1477474153.057:  -1074  83  11  744
1477474153.057:  -1202  83  11  744
1477474153.057:  -1300  83  11  744
1477474153.057:  -1326  83  11  744
1477474153.060:  -1290  83  11  744
1477474153.061:  -1225  83  11  744
1477474153.067:  -1163  83  11  744
1477474153.068:  -1125  83  11  744
1477474153.068:  -1125  83  11  744
1477474153.069:  -1165  83  11  744
1477474153.072:  -1228  83  11  744
1477474153.073:  -1276  83  11  744
1477474153.075:  -1287  83  11  744
1477474153.080:  -1264  83  11  744
1477474153.080:  -1231  83  11  744
1477474153.081:  -1208  83  11  744
1477474153.084:  -1200  83  11  744
1477474153.100:  -1196  83  11  744
1477474153.101:  -1198  83  11  744
1477474153.102:  -1216  83  11  744
1477474153.102:  -1253  83  11  744
1477474153.103:  -1297  83  11  744
1477474153.103:  -1323  83  11  744
1477474153.104:  -1317  83  11  744
1477474153.105:  -1290  83  11  744
1477474153.106:  -1272  83  11  744
1477474153.108:  -1281  83  11  744
1477474153.117:  -1311  83  11  744
1477474153.117:  -1336  83  11  744
1477474153.130:  -1342  83  11  744
1477474153.131:  -1335  83  11  744
1477474153.135:  -1336  83  11  744
1477474153.136:  -1348  83  11  744
1477474153.136:  -1357  83  11  744
1477474153.136:  -1356  83  11  744
1477474153.136:  -1352  83  11  744
1477474153.136:  -1359  83  11  744
1477474153.136:  -1376  83  11  744
1477474153.136:  -1396  83  11  744
1477474153.137:  -1411  83  11  744
1477474153.137:  -1419  83  11  744
1477474153.137:  -1426  83  11  744
1477474153.137:  -1437  83  11  744
1477474153.138:  -1458  83  11  744
1477474153.139:  -1495  83  11  744
1477474153.140:  -1533  83  11  744
1477474153.142:  -1546  83  11  744
1477474153.148:  -1525  83  11  744
1477474153.149:  -1498  83  11  744
1477474153.149:  -1506  83  11  744
1477474153.150:  -1557  83  11  744
1477474153.152:  -1609  83  11  744
1477474153.154:  -1618  83  11  744
1477474153.155:  -1589  83  11  744
1477474153.162:  -1573  83  11  744
1477474153.170:  -1605  83  11  744
1477474153.170:  -1660  83  11  744
1477474153.171:  -1688  83  11  744
1477474153.172:  -1681  83  11  744
1477474153.172:  -1677  83  11  744
1477474153.173:  -1708  83  11  744
1477474153.176:  -1759  83  11  744
1477474153.176:  -1784  83  11  744
1477474153.176:  -1771  83  11  744
1477474153.177:  -1760  83  11  744
1477474153.180:  -1791  83  11  744
1477474153.181:  -1850  83  11  744
1477474153.189:  -1889  83  11  744
1477474153.190:  -1891  83  11  744
1477474153.190:  -1889  83  11  744
1477474153.190:  -1919  83  11  744
1477474153.191:  -1972  83  11  744
1477474153.192:  -2010  83  11  744
1477474153.199:  -2020  83  11  744
1477474153.199:  -2023  83  11  744
1477474153.210:  -2049  83  11  744
1477474153.210:  -2094  83  11  744
1477474153.210:  -2129  83  11  744
1477474153.210:  -2142  83  11  744
1477474153.210:  -2154  83  11  744
1477474153.214:  -2191  83  11  744
1477474153.214:  -2255  83  11  744
1477474153.215:  -2323  83  11  744
1477474153.215:  -2371  83  11  744
1477474153.218:  -2392  83  11  744
1477474153.219:  -2399  83  11  744
1477474153.221:  -2409  83  11  744
1477474153.223:  -2432  83  11  744
1477474153.225:  -2460  83  11  744
1477474153.234:  -2481  83  11  744
1477474153.234:  -2489  83  11  744
1477474153.235:  -2495  83  11  744
1477474153.235:  -2520  83  11  744
1477474153.235:  -2572  83  11  744
1477474153.241:  -2634  83  11  744
1477474153.241:  -2687  83  11  744
1477474153.244:  -2722  83  11  744
1477474153.244:  -2748  83  11  744
1477474153.245:  -2772  83  11  744
1477474153.247:  -2789  83  11  744
1477474153.256:  -2789  83  11  744
1477474153.270:  -2765  83  11  744
1477474153.270:  -2723  83  11  744
1477474153.270:  -2682  83  11  744
1477474153.270:  -2653  83  11  744
1477474153.270:  -2636  83  11  744
1477474153.270:  -2622  83  11  744
1477474153.270:  -2601  83  11  744
1477474153.270:  -2572  83  11  744
1477474153.271:  -2537  83  11  744
1477474153.271:  -2495  83  11  744
1477474153.271:  -2442  83  11  744
1477474153.272:  -2380  83  11  744
1477474153.274:  -2313  83  11  744
1477474153.275:  -2243  83  11  744
1477474153.278:  -2164  83  11  744
1477474153.280:  -2065  83  11  744
1477474153.290:  -1945  83  11  744
1477474153.291:  -1820  83  11  744
1477474153.291:  -1711  83  11  744
1477474153.291:  -1626  83  11  744
1477474153.291:  -1558  83  11  744
1477474153.291:  -1487  83  11  744
1477474153.294:  -1400  83  11  744
1477474153.295:  -1300  83  11  744
1477474153.298:  -1210  85  11  732
1477474153.299:  -1148  85  11  732
1477474153.307:  -1112  85  11  732
1477474153.308:  -1079  85  11  732
1477474153.308:  -1023  85  11  732
1477474153.308:   -938  85  11  732
1477474153.312:   -853  85  11  732
1477474153.312:   -798  85  11  732
1477474153.313:   -776  85  11  732
1477474153.314:   -761  85  11  732
1477474153.316:   -734  85  11  732
1477474153.318:   -702  85  11  732
1477474153.321:   -678  85  11  732
1477474153.325:   -664  85  11  732
1477474153.325:   -647  85  11  732
1477474153.327:   -628  85  11  732
1477474153.345:   -626  85  11  732
1477474153.346:   -646  85  11  732
1477474153.346:   -661  85  11  732
1477474153.346:   -639  85  11  732
1477474153.346:   -582  85  11  732
1477474153.346:   -534  85  11  732
1477474153.347:   -530  85  11  732
1477474153.349:   -561  85  11  732
1477474153.350:   -591  85  11  732
1477474153.351:   -599  85  11  732
1477474153.352:   -597  85  11  732
1477474153.354:   -606  85  11  732
1477474153.354:   -627  85  11  732
1477474153.356:   -647  85  11  732
1477474153.357:   -659  85  11  732
1477474153.358:   -665  85  11  732
1477474153.370:   -667  85  11  732
1477474153.371:   -661  85  11  732
1477474153.371:   -638  85  11  732
1477474153.371:   -603  85  11  732
1477474153.371:   -577  85  11  732
1477474153.372:   -572  85  11  732
1477474153.373:   -597  85  11  732
1477474153.374:   -640  85  11  732
1477474153.376:   -676  85  11  732
1477474153.377:   -684  85  11  732
1477474153.380:   -671  85  11  732
1477474153.381:   -669  85  11  732
1477474153.385:   -704  85  11  732
1477474153.385:   -766  85  11  732
1477474153.396:   -812  85  11  732
1477474153.397:   -816  85  11  732
1477474153.398:   -795  85  11  732
1477474153.398:   -785  85  11  732
1477474153.399:   -798  85  11  732
1477474153.399:   -820  85  11  732
1477474153.400:   -833  85  11  732
1477474153.401:   -837  85  11  732
1477474153.402:   -835  85  11  732
1477474153.404:   -822  85  11  732
1477474153.409:   -802  85  11  732
1477474153.409:   -786  85  11  732
1477474153.418:   -791  85  11  732
1477474153.418:   -811  85  11  732
1477474153.418:   -828  85  11  732
1477474153.418:   -834  85  11  732
1477474153.418:   -837  85  11  732
1477474153.425:   -837  85  11  732
1477474153.425:   -826  85  11  732
1477474153.427:   -806  85  11  732
1477474153.428:   -800  85  11  732
1477474153.430:   -823  85  11  732
1477474153.456:   -851  85  11  732
1477474153.457:   -840  85  11  732
1477474153.459:   -788  85  11  732
1477474153.462:   -746  85  11  732
1477474153.465:   -763  85  11  732
1477474153.466:   -823  85  11  732
1477474153.490:   -863  85  11  732
1477474153.490:   -844  85  11  732
1477474153.492:   -796  85  11  732
1477474153.492:   -779  85  11  732
1477474153.493:   -817  85  11  732
1477474153.493:   -872  85  11  732
1477474153.493:   -894  85  11  732
1477474153.494:   -874  85  11  732
1477474153.494:   -839  85  11  732
1477474153.496:   -820  85  11  732
1477474153.496:   -825  85  11  732
1477474153.497:   -832  85  11  732
1477474153.506:   -827  85  11  732
1477474153.507:   -808  85  11  732
1477474153.507:   -789  85  11  732
1477474153.507:   -781  85  11  732
1477474153.508:   -792  85  11  732
1477474153.508:   -813  85  11  732
1477474153.508:   -832  85  11  732
1477474153.509:   -836  85  11  732
1477474153.509:   -827  85  11  732
1477474153.510:   -816  85  11  732
1477474153.510:   -822  85  11  732
1477474153.510:   -844  85  11  732
1477474153.510:   -862  85  11  732
1477474153.511:   -855  85  11  732
1477474153.511:   -831  85  11  732
1477474153.511:   -818  85  11  732
1477474153.511:   -832  85  11  732
1477474153.511:   -855  85  11  732
1477474153.512:   -856  85  11  732
1477474153.512:   -831  85  11  732
1477474153.512:   -812  85  11  732
1477474153.513:   -819  85  11  732
1477474153.513:   -837  85  11  732
1477474153.513:   -841  85  11  732
1477474153.513:   -828  85  11  732
1477474153.515:   -820  85  11  732
1477474153.516:   -828  85  11  732
1477474153.524:   -843  85  11  732
1477474153.524:   -854  85  11  732
1477474153.527:   -869  85  11  732
1477474153.528:   -889  85  11  732
1477474153.530:   -899  85  11  732
1477474153.533:   -884  85  11  732
1477474153.533:   -860  85  11  732
1477474153.533:   -856  85  11  732
1477474153.538:   -877  85  11  732
1477474153.540:   -890  85  11  732
1477474153.540:   -873  85  11  732
1477474153.542:   -849  85  11  732
1477474153.543:   -861  85  11  732
1477474153.544:   -912  85  11  732
1477474153.546:   -955  85  11  732
1477474153.561:   -963  85  11  732
1477474153.561:   -960  85  11  732
1477474153.561:   -983  85  11  732
1477474153.561:  -1033  85  11  732
1477474153.562:  -1069  85  11  732
1477474153.562:  -1070  85  11  732
1477474153.562:  -1065  85  11  732
1477474153.563:  -1095  85  11  732
1477474153.565:  -1154  85  11  732
1477474153.565:  -1208  85  11  732
1477474153.567:  -1248  85  11  732
1477474153.573:  -1304  85  11  732
1477474153.586:  -1397  85  11  732
1477474153.587:  -1496  85  11  732
1477474153.587:  -1553  85  11  732
1477474153.587:  -1561  85  11  732
1477474153.587:  -1562  85  11  732
1477474153.587:  -1582  85  11  732
1477474153.616:  -1592  85  11  732
1477474153.734:  -1545  85  11  732
1477474153.740:  -1440  85  11  732
1477474153.740:  -1322  85  11  732
1477474153.740:  -1229  85  11  732
1477474153.740:  -1161  85  11  732
1477474153.740:  -1095  85  11  732
1477474153.740:  -1035  85  11  732
1477474153.741:   -994  85  11  732
1477474153.741:   -977  85  11  732
1477474153.741:   -968  85  11  732
1477474153.741:   -954  85  11  732
1477474153.741:   -938  85  11  732
1477474153.741:   -920  85  11  732
1477474153.741:   -896  85  11  732
1477474153.742:   -857  85  11  732
1477474153.742:   -802  85  11  732
1477474153.742:   -748  85  11  732
1477474153.742:   -715  85  11  732
1477474153.742:   -707  85  11  732
1477474153.743:   -711  85  11  732
1477474153.743:   -713  85  11  732
1477474153.743:   -712  85  11  732
1477474153.743:   -723  85  11  732
1477474153.743:   -757  85  11  732
1477474153.743:   -810  85  11  732
1477474153.744:   -855  85  11  732
1477474153.744:   -865  85  11  732
1477474153.744:   -843  85  11  732
1477474153.744:   -823  85  11  732
1477474153.744:   -823  85  11  732
1477474153.744:   -836  85  11  732
1477474153.744:   -837  85  11  732
1477474153.745:   -812  85  11  732
1477474153.745:   -775  85  11  732
1477474153.745:   -755  85  11  732
1477474153.745:   -789  85  11  732
1477474153.745:   -921  85  11  732
1477474153.745:  -1175  85  11  732
1477474153.745:  -1512  85  11  732
1477474153.746:  -1827  85  11  732
1477474153.746:  -2020  85  11  732
1477474153.746:  -2070  85  11  732
1477474153.746:  -2027  85  11  732
1477474153.750:  -1920  85  11  732
1477474153.750:  -1711  85  11  732
1477474153.750:  -1347  85  11  732
1477474153.750:   -847  85  11  732
1477474153.750:   -309  85  11  732
1477474153.750:    168  85  11  732
1477474153.750:    546  85  11  732
1477474153.751:    825  85  11  732
1477474153.751:    962  85  11  732
1477474153.751:    888  85  11  732
1477474153.751:    615  85  11  732
1477474153.751:    316  85  11  732
1477474153.751:    230  85  11  732
1477474153.751:    470  85  11  732
1477474153.751:    913  85  11  732
1477474153.752:   1303  85  11  732
1477474153.752:   1490  85  11  732
1477474153.752:   1542  85  11  732
1477474153.752:   1619  85  11  732
1477474153.752:   1760  85  11  732
1477474153.752:   1811  85  11  732
1477474153.752:   1577  85  11  732
1477474153.753:   1026  85  11  732
1477474153.753:    304  85  11  732
1477474153.753:   -387  85  11  732
1477474153.753:   -924  85  11  732
1477474153.753:  -1278  85  11  732
1477474153.753:  -1456  85  11  732
1477474153.754:  -1482  85  11  732
1477474153.754:  -1415  85  11  732
1477474153.754:  -1338  85  11  732
1477474153.754:  -1293  85  11  732
1477474153.754:  -1252  85  11  732
1477474153.754:  -1174  85  11  732
1477474153.754:  -1074  85  11  732
1477474153.755:  -1026  85  11  732
1477474153.755:  -1072  85  11  732
1477474153.755:  -1172  85  11  732
1477474153.755:  -1251  85  11  732
1477474153.755:  -1277  85  11  732
1477474153.755:  -1268  85  11  732
1477474153.755:  -1252  85  11  732
1477474153.756:  -1219  85  11  732
1477474153.756:  -1158  85  11  732
1477474153.756:  -1095  85  11  732
1477474153.760:  -1085  85  11  732
1477474153.760:  -1154  85  11  732
1477474153.762:  -1267  85  11  732
1477474153.763:  -1358  85  11  732
1477474153.766:  -1384  85  11  732
1477474153.768:  -1353  85  11  732
1477474153.769:  -1307  85  11  732
1477474153.774:  -1276  85  11  732
1477474153.774:  -1266  85  11  732
1477474153.798:  -1268  85  11  732
1477474153.799:  -1272  85  11  732
1477474153.799:  -1278  85  11  732
1477474153.799:  -1293  85  11  732
1477474153.800:  -1312  85  11  732
1477474153.800:  -1328  85  11  732
1477474153.800:  -1334  85  11  732
1477474153.800:  -1334  85  11  732
1477474153.800:  -1329  85  11  732
1477474153.800:  -1310  85  11  732
1477474153.800:  -1286  85  11  732
1477474153.801:  -1283  85  11  732
1477474153.804:  -1321  85  11  732
1477474153.804:  -1378  85  11  732
1477474153.804:  -1405  85  11  732
1477474153.804:  -1375  85  11  732
1477474153.807:  -1323  85  11  732
1477474153.809:  -1316  85  11  732
1477474153.819:  -1366  85  11  732
1477474153.820:  -1421  85  11  732
1477474153.820:  -1430  85  11  732
1477474153.820:  -1407  85  11  732
1477474153.820:  -1407  85  11  732
1477474153.821:  -1454  85  11  732
1477474153.821:  -1501  85  11  732
1477474153.825:  -1497  85  11  732
1477474153.829:  -1453  85  11  732
1477474153.829:  -1429  85  11  732
1477474153.832:  -1452  85  11  732
1477474153.833:  -1492  85  11  732
1477474153.835:  -1500  85  11  732
1477474153.837:  -1475  85  11  732
1477474153.838:  -1452  85  11  732
1477474153.841:  -1465  85  11  732
1477474153.842:  -1507  85  11  732
1477474153.847:  -1557  85  11  732
1477474153.857:  -1597  85  11  732
1477474153.857:  -1619  85  11  732
1477474153.858:  -1622  85  11  732
1477474153.858:  -1617  85  11  732
1477474153.858:  -1621  85  11  732
1477474153.858:  -1646  85  11  732
1477474153.860:  -1678  85  11  732
1477474153.860:  -1692  85  11  732
1477474153.864:  -1686  85  11  732
1477474153.865:  -1686  85  11  732
1477474153.866:  -1714  85  11  732
1477474153.868:  -1756  85  11  732
1477474153.869:  -1786  85  11  732
1477474153.874:  -1799  85  11  732
1477474153.887:  -1821  85  11  732
1477474153.887:  -1865  85  11  732
1477474153.887:  -1913  85  11  732
1477474153.887:  -1932  85  11  732
1477474153.888:  -1920  85  11  732
1477474153.888:  -1912  85  11  732
1477474153.888:  -1941  85  11  732
1477474153.888:  -2001  85  11  732
1477474153.889:  -2055  85  11  732
1477474153.892:  -2083  85  11  732
1477474153.894:  -2095  85  11  732
1477474153.898:  -2117  85  11  732
1477474153.898:  -2157  85  11  732
1477474153.901:  -2208  85  11  732
1477474153.902:  -2253  85  11  732
1477474153.903:  -2289  85  11  732
1477474153.906:  -2319  85  11  732
1477474153.911:  -2349  85  11  732
1477474153.928:  -2387  85  11  732
1477474153.928:  -2435  85  11  732
1477474153.928:  -2486  85  11  732
1477474153.928:  -2531  85  11  732
1477474153.928:  -2562  85  11  732
1477474153.928:  -2586  85  11  732
1477474153.929:  -2608  85  11  732
1477474153.929:  -2634  85  11  732
1477474153.929:  -2661  85  11  732
1477474153.929:  -2685  85  11  732
1477474153.930:  -2708  85  11  732
1477474153.931:  -2727  85  11  732
1477474153.933:  -2737  87  11  717
1477474153.938:  -2742  87  11  717
1477474153.941:  -2752  87  11  717
1477474153.941:  -2773  87  11  717
1477474153.948:  -2794  87  11  717
1477474153.948:  -2793  87  11  717
1477474153.960:  -2765  87  11  717
1477474153.961:  -2725  87  11  717
1477474153.961:  -2697  87  11  717
1477474153.961:  -2687  87  11  717
1477474153.961:  -2678  87  11  717
1477474153.961:  -2646  87  11  717
1477474153.962:  -2590  87  11  717
1477474153.964:  -2530  87  11  717
1477474153.964:  -2487  87  11  717
1477474153.965:  -2455  87  11  717
1477474153.965:  -2411  87  11  717
1477474153.967:  -2340  87  11  717
1477474153.968:  -2250  87  11  717
1477474153.972:  -2157  87  11  717
1477474153.973:  -2069  87  11  717
1477474153.975:  -1974  87  11  717
1477474153.979:  -1860  87  11  717
1477474153.980:  -1738  87  11  717
1477474153.997:  -1629  87  11  717
1477474153.997:  -1539  87  11  717
1477474153.998:  -1457  87  11  717
1477474153.998:  -1367  87  11  717
1477474153.998:  -1274  87  11  717
1477474153.999:  -1194  87  11  717
1477474153.999:  -1138  87  11  717
1477474154.000:  -1094  87  11  717
1477474154.001:  -1044  87  11  717
1477474154.002:   -982  87  11  717
1477474154.002:   -917  87  11  717
1477474154.002:   -862  87  11  717
1477474154.006:   -820  87  11  717
1477474154.006:   -781  87  11  717
1477474154.008:   -733  87  11  717
1477474154.010:   -674  87  11  717
1477474154.011:   -623  87  11  717
1477474154.013:   -606  87  11  717
1477474154.030:   -625  87  11  717
1477474154.030:   -644  87  11  717
1477474154.030:   -627  87  11  717
1477474154.030:   -580  87  11  717
1477474154.030:   -551  87  11  717
1477474154.031:   -572  87  11  717
1477474154.031:   -618  87  11  717
1477474154.032:   -630  87  11  717
1477474154.034:   -582  87  11  717
1477474154.034:   -520  87  11  717
1477474154.036:   -504  87  11  717
1477474154.037:   -541  87  11  717
1477474154.039:   -583  87  11  717
1477474154.040:   -595  87  11  717
1477474154.059:   -589  87  11  717
1477474154.059:   -599  87  11  717
1477474154.059:   -625  87  11  717
1477474154.059:   -642  87  11  717
1477474154.059:   -632  87  11  717
1477474154.059:   -619  87  11  717
1477474154.060:   -637  87  11  717
1477474154.060:   -682  87  11  717
1477474154.061:   -709  87  11  717
1477474154.061:   -683  87  11  717
1477474154.065:   -624  87  11  717
1477474154.066:   -589  87  11  717
1477474154.067:   -608  87  11  717
1477474154.068:   -658  87  11  717
1477474154.071:   -682  87  11  717
1477474154.075:   -659  87  11  717
1477474154.088:   -621  87  11  717
1477474154.088:   -621  87  11  717
1477474154.088:   -673  87  11  717
1477474154.088:   -735  87  11  717
1477474154.089:   -761  87  11  717
1477474154.089:   -751  87  11  717
1477474154.089:   -739  87  11  717
1477474154.089:   -756  87  11  717
1477474154.090:   -790  87  11  717
1477474154.094:   -807  87  11  717
1477474154.095:   -793  87  11  717
1477474154.097:   -766  87  11  717
1477474154.097:   -752  87  11  717
1477474154.101:   -757  87  11  717
1477474154.102:   -763  87  11  717
1477474154.103:   -758  87  11  717
1477474154.108:   -740  87  11  717
1477474154.108:   -727  87  11  717
1477474154.123:   -732  87  11  717
1477474154.124:   -752  87  11  717
1477474154.124:   -769  87  11  717
1477474154.124:   -770  87  11  717
1477474154.124:   -752  87  11  717
1477474154.124:   -735  87  11  717
1477474154.125:   -739  87  11  717
1477474154.125:   -761  87  11  717
1477474154.125:   -776  87  11  717
1477474154.127:   -760  87  11  717
1477474154.131:   -726  87  11  717
1477474154.132:   -713  87  11  717
1477474154.135:   -735  87  11  717
1477474154.136:   -776  87  11  717
1477474154.141:   -791  87  11  717
1477474154.141:   -771  87  11  717
1477474154.142:   -738  87  11  717
1477474154.143:   -729  87  11  717
1477474154.144:   -757  87  11  717
1477474154.149:   -796  87  11  717
1477474154.149:   -809  87  11  717
1477474154.155:   -784  87  11  717
1477474154.167:   -738  87  11  717
1477474154.167:   -704  87  11  717
1477474154.168:   -694  87  11  717
1477474154.168:   -703  87  11  717
1477474154.169:   -710  87  11  717
1477474154.169:   -708  87  11  717
1477474154.169:   -708  87  11  717
1477474154.169:   -719  87  11  717
1477474154.169:   -737  87  11  717
1477474154.170:   -754  87  11  717
1477474154.172:   -769  87  11  717
1477474154.177:   -792  87  11  717
1477474154.177:   -816  87  11  717
1477474154.180:   -823  87  11  717
1477474154.193:   -802  87  11  717
1477474154.193:   -773  87  11  717
1477474154.193:   -769  87  11  717
1477474154.194:   -793  87  11  717
1477474154.194:   -814  87  11  717
1477474154.194:   -798  87  11  717
1477474154.196:   -747  87  11  717
1477474154.196:   -708  87  11  717
1477474154.197:   -712  87  11  717
1477474154.198:   -749  87  11  717
1477474154.204:   -780  87  11  717
1477474154.204:   -786  87  11  717
1477474154.205:   -777  87  11  717
1477474154.207:   -779  87  11  717
1477474154.208:   -791  87  11  717
1477474154.209:   -798  87  11  717
1477474154.211:   -798  87  11  717
1477474154.217:   -796  87  11  717
1477474154.232:   -806  87  11  717
1477474154.350:   -823  87  11  717
1477474154.360:   -835  87  11  717
1477474154.360:   -839  87  11  717
1477474154.360:   -844  87  11  717
1477474154.360:   -855  87  11  717
1477474154.360:   -876  87  11  717
1477474154.360:   -905  87  11  717
1477474154.360:   -945  87  11  717
1477474154.361:   -990  87  11  717
1477474154.361:  -1025  87  11  717
1477474154.361:  -1035  87  11  717
1477474154.361:  -1040  87  11  717
1477474154.361:  -1079  87  11  717
1477474154.361:  -1166  87  11  717
1477474154.361:  -1267  87  11  717
1477474154.361:  -1329  87  11  717
1477474154.362:  -1346  87  11  717
1477474154.362:  -1363  87  11  717
1477474154.362:  -1424  87  11  717
1477474154.362:  -1514  87  11  717
1477474154.362:  -1580  87  11  717
1477474154.362:  -1584  87  11  717
1477474154.362:  -1536  87  11  717
1477474154.362:  -1461  87  11  717
1477474154.363:  -1377  87  11  717
1477474154.363:  -1288  87  11  717
1477474154.363:  -1201  87  11  717
1477474154.363:  -1123  87  11  717
1477474154.363:  -1047  87  11  717
1477474154.363:   -964  87  11  717
1477474154.363:   -886  87  11  717
1477474154.364:   -847  87  11  717
1477474154.364:   -849  87  11  717
1477474154.364:   -858  87  11  717
1477474154.365:   -830  87  11  717
1477474154.365:   -769  87  11  717
1477474154.365:   -725  87  11  717
1477474154.365:   -729  87  11  717
1477474154.365:   -754  87  11  717
1477474154.365:   -749  87  11  717
1477474154.365:   -694  87  11  717
1477474154.366:   -628  87  11  717
1477474154.366:   -594  87  11  717
1477474154.366:   -597  87  11  717
1477474154.366:   -610  87  11  717
1477474154.366:   -612  87  11  717
1477474154.367:   -612  87  11  717
1477474154.367:   -622  87  11  717
1477474154.367:   -643  87  11  717
1477474154.367:   -659  87  11  717
1477474154.367:   -666  87  11  717
1477474154.371:   -672  87  11  717
1477474154.371:   -686  87  11  717
1477474154.375:   -704  87  11  717
1477474154.375:   -709  87  11  717
1477474154.376:   -694  87  11  717
1477474154.376:   -668  87  11  717
1477474154.396:   -645  87  11  717
1477474154.397:   -635  87  11  717
1477474154.397:   -652  87  11  717
1477474154.397:   -737  87  11  717
1477474154.397:   -938  87  11  717
1477474154.397:  -1251  87  11  717
1477474154.398:  -1588  87  11  717
1477474154.398:  -1832  87  11  717
1477474154.398:  -1921  87  11  717
1477474154.398:  -1881  87  11  717
1477474154.399:  -1772  87  11  717
1477474154.400:  -1597  87  11  717
1477474154.400:  -1295  87  11  717
1477474154.400:   -817  87  11  717
1477474154.400:   -203  87  11  717
1477474154.400:    428  87  11  717
1477474154.400:    961  87  11  717
1477474154.400:   1339  87  11  717
1477474154.401:   1554  87  11  717
1477474154.401:   1598  87  11  717
1477474154.404:   1471  87  11  717
1477474154.404:   1238  87  11  717
1477474154.404:   1050  87  11  717
1477474154.405:   1068  87  11  717
1477474154.405:   1328  87  11  717
1477474154.405:   1690  87  11  717
1477474154.405:   1948  87  11  717
1477474154.405:   2010  87  11  717
1477474154.406:   1956  87  11  717
1477474154.406:   1924  87  11  717
1477474154.406:   1928  87  11  717
1477474154.406:   1820  87  11  717
1477474154.406:   1433  87  11  717
1477474154.407:    761  87  11  717
1477474154.407:    -21  87  11  717
1477474154.407:   -684  87  11  717
1477474154.409:  -1109  87  11  717
1477474154.409:  -1325  87  11  717
1477474154.410:  -1409  87  11  717
1477474154.415:  -1410  87  11  717
1477474154.423:  -1339  87  11  717
1477474154.424:  -1228  87  11  717
1477474154.424:  -1139  87  11  717
1477474154.424:  -1113  87  11  717
1477474154.424:  -1125  87  11  717
1477474154.424:  -1116  87  11  717
1477474154.425:  -1070  87  11  717
1477474154.425:  -1046  87  11  717
1477474154.425:  -1109  87  11  717
1477474154.428:  -1250  87  11  717
1477474154.428:  -1370  87  11  717
1477474154.429:  -1371  87  11  717
1477474154.432:  -1253  87  11  717
1477474154.433:  -1107  87  11  717
1477474154.436:  -1030  87  11  717
1477474154.438:  -1046  87  11  717
1477474154.441:  -1118  87  11  717
1477474154.441:  -1198  87  11  717
1477474154.443:  -1260  87  11  717
1477474154.446:  -1297  87  11  717
1477474154.447:  -1301  87  11  717
1477474154.450:  -1273  87  11  717
1477474154.462:  -1231  87  11  717
1477474154.462:  -1193  87  11  717
1477474154.462:  -1166  87  11  717
1477474154.462:  -1147  87  11  717
1477474154.462:  -1142  87  11  717
1477474154.463:  -1165  87  11  717
1477474154.464:  -1215  87  11  717
1477474154.465:  -1258  87  11  717
1477474154.469:  -1263  87  11  717
1477474154.469:  -1233  87  11  717
1477474154.471:  -1210  87  11  717
1477474154.473:  -1228  87  11  717
1477474154.492:  -1270  87  11  717
1477474154.492:  -1287  87  11  717
1477474154.492:  -1264  87  11  717
1477474154.493:  -1240  87  11  717
1477474154.493:  -1263  87  11  717
1477474154.493:  -1324  87  11  717
1477474154.493:  -1364  87  11  717
1477474154.493:  -1342  87  11  717
1477474154.493:  -1291  87  11  717
1477474154.493:  -1273  87  11  717
1477474154.497:  -1309  87  11  717
1477474154.497:  -1362  87  11  717
1477474154.500:  -1381  87  11  717
1477474154.500:  -1364  87  11  717
1477474154.502:  -1340  87  11  717
1477474154.506:  -1338  87  11  717
1477474154.516:  -1358  87  11  717
1477474154.516:  -1388  87  11  717
1477474154.516:  -1414  87  11  717
1477474154.516:  -1429  87  11  717
1477474154.516:  -1428  87  11  717
1477474154.517:  -1414  87  11  717
1477474154.518:  -1408  87  11  717
1477474154.519:  -1424  87  11  717
1477474154.524:  -1452  87  11  717
1477474154.524:  -1470  87  11  717
1477474154.526:  -1471  87  11  717
1477474154.528:  -1471  87  11  717
1477474154.532:  -1488  87  11  717
1477474154.532:  -1519  87  11  717
1477474154.533:  -1544  87  11  717
1477474154.538:  -1555  87  11  717
1477474154.539:  -1560  87  11  717
1477474154.539:  -1578  87  11  717
1477474154.542:  -1614  87  11  717
1477474154.543:  -1655  87  11  717
1477474154.546:  -1678  87  11  717
1477474154.551:  -1674  87  11  717
1477474154.567:  -1659  87  11  717
1477474154.568:  -1662  87  11  717
1477474154.568:  -1704  87  11  717
1477474154.568:  -1768  87  11  717
1477474154.568:  -1818  87  11  717
1477474154.568:  -1836  87  11  717
1477474154.568:  -1840  87  11  717
1477474154.569:  -1865  87  11  717
1477474154.569:  -1924  87  11  717
1477474154.569:  -1991  87  11  717
1477474154.569:  -2039  87  11  717
1477474154.571:  -2057  87  11  717
1477474154.572:  -2065  87  11  717
1477474154.579:  -2079  87  11  717
1477474154.591:  -2108  87  11  717
1477474154.591:  -2149  87  11  717
1477474154.592:  -2189  87  11  717
1477474154.592:  -2220  87  11  717
1477474154.592:  -2238  87  11  717
1477474154.592:  -2251  87  11  717
1477474154.621:  -2277  87  11  717
1477474154.621:  -2315  87  11  717
1477474154.629:  -2357  87  11  717
1477474154.630:  -2397  87  11  717
1477474154.630:  -2434  87  11  717
1477474154.630:  -2471  87  11  717
1477474154.630:  -2507  87  11  717
1477474154.630:  -2540  87  11  717
1477474154.631:  -2576  87  11  717
1477474154.631:  -2618  87  11  717
1477474154.633:  -2652  87  11  717
1477474154.633:  -2662  87  11  717
1477474154.634:  -2654  87  11  717
1477474154.635:  -2654  87  11  717
1477474154.636:  -2669  87  11  717
1477474154.637:  -2675  87  11  708
1477474154.638:  -2645  87  11  708
1477474154.638:  -2602  87  11  708
1477474154.652:  -2593  87  11  708
1477474154.652:  -2627  87  11  708
1477474154.653:  -2654  87  11  708
1477474154.653:  -2628  87  11  708
1477474154.653:  -2566  87  11  708
1477474154.653:  -2530  87  11  708
1477474154.654:  -2543  87  11  708
1477474154.654:  -2554  87  11  708
1477474154.654:  -2499  87  11  708
1477474154.654:  -2383  87  11  708
1477474154.654:  -2269  87  11  708
1477474154.655:  -2193  87  11  708
1477474154.655:  -2126  87  11  708
1477474154.655:  -2025  87  11  708
1477474154.655:  -1893  87  11  708
1477474154.657:  -1777  87  11  708
1477474154.657:  -1705  87  11  708
1477474154.658:  -1647  87  11  708
1477474154.659:  -1562  87  11  708
1477474154.661:  -1442  87  11  708
1477474154.665:  -1329  87  11  708
1477474154.665:  -1257  87  11  708
1477474154.668:  -1214  87  11  708
1477474154.669:  -1162  87  11  708
1477474154.670:  -1077  87  11  708
1477474154.674:   -968  87  11  708
1477474154.675:   -875  87  11  708
1477474154.680:   -817  87  11  708
1477474154.680:   -784  87  11  708
1477474154.681:   -752  87  11  708
1477474154.684:   -700  87  11  708
1477474154.689:   -639  87  11  708
1477474154.696:   -585  87  11  708
1477474154.696:   -557  87  11  708
1477474154.696:   -555  87  11  708
1477474154.696:   -557  87  11  708
1477474154.696:   -543  87  11  708
1477474154.700:   -510  87  11  708
1477474154.701:   -481  87  11  708
1477474154.702:   -478  87  11  708
1477474154.703:   -497  87  11  708
1477474154.706:   -508  87  11  708
1477474154.706:   -489  87  11  708
1477474154.708:   -454  87  11  708
1477474154.736:   -435  87  11  708
1477474154.737:   -435  87  11  708
1477474154.738:   -434  87  11  708
1477474154.739:   -422  87  11  708
1477474154.745:   -415  87  11  708
1477474154.745:   -431  87  11  708
1477474154.746:   -454  87  11  708
1477474154.746:   -459  87  11  708
1477474154.747:   -454  87  11  708
1477474154.747:   -470  87  11  708
1477474154.747:   -512  87  11  708
1477474154.748:   -545  87  11  708
1477474154.760:   -541  87  11  708
1477474154.760:   -522  87  11  708
1477474154.760:   -532  87  11  708
1477474154.760:   -569  87  11  708
1477474154.760:   -585  87  11  708
1477474154.761:   -555  87  11  708
1477474154.761:   -523  87  11  708
1477474154.761:   -537  87  11  708
1477474154.761:   -585  87  11  708
1477474154.761:   -615  87  11  708
1477474154.761:   -602  87  11  708
1477474154.761:   -587  87  11  708
1477474154.761:   -607  87  11  708
1477474154.762:   -638  87  11  708
1477474154.764:   -640  87  11  708
1477474154.764:   -612  87  11  708
1477474154.766:   -603  87  11  708
1477474154.772:   -633  87  11  708
1477474154.788:   -663  87  11  708
1477474154.788:   -651  87  11  708
1477474154.789:   -606  87  11  708
1477474154.789:   -577  87  11  708
1477474154.790:   -589  87  11  708
1477474154.790:   -615  87  11  708
1477474154.790:   -622  87  11  708
1477474154.790:   -611  87  11  708
1477474154.791:   -609  87  11  708
1477474154.791:   -626  87  11  708
1477474154.791:   -646  87  11  708
1477474154.791:   -653  87  11  708
1477474154.793:   -648  87  11  708
1477474154.798:   -647  87  11  708
1477474154.809:   -660  87  11  708
1477474154.809:   -676  87  11  708
1477474154.809:   -678  87  11  708
1477474154.810:   -660  87  11  708
1477474154.810:   -631  87  11  708
1477474154.810:   -611  87  11  708
1477474154.812:   -613  87  11  708
1477474154.813:   -626  87  11  708
1477474154.813:   -629  87  11  708
1477474154.814:   -612  87  11  708
1477474154.816:   -598  87  11  708
1477474154.818:   -608  87  11  708
1477474154.820:   -635  87  11  708
1477474154.825:   -650  87  11  708
1477474154.826:   -633  87  11  708
1477474154.827:   -608  87  11  708
1477474154.829:   -606  87  11  708
1477474154.831:   -631  87  11  708
1477474154.835:   -653  87  11  708
1477474154.835:   -647  87  11  708
1477474154.839:   -623  87  11  708
1477474154.839:   -613  87  11  708
1477474154.849:   -627  87  11  708
1477474154.849:   -654  87  11  708
1477474154.849:   -666  87  11  708
1477474154.849:   -659  87  11  708
1477474154.850:   -637  87  11  708
1477474154.852:   -615  87  11  708
1477474154.853:   -601  87  11  708
1477474154.856:   -596  87  11  708
1477474154.869:   -599  87  11  708
1477474154.869:   -605  87  11  708
1477474154.869:   -609  87  11  708
1477474154.869:   -612  87  11  708
1477474154.870:   -620  87  11  708
1477474154.870:   -634  87  11  708
1477474154.870:   -645  87  11  708
1477474154.871:   -648  87  11  708
1477474154.871:   -647  87  11  708
1477474154.873:   -653  87  11  708
1477474154.875:   -675  87  11  708
1477474154.877:   -703  87  11  708
1477474154.880:   -720  87  11  708
1477474154.881:   -714  87  11  708
1477474154.885:   -697  87  11  708
1477474154.885:   -688  87  11  708
1477474154.887:   -700  87  11  708
1477474154.889:   -721  87  11  708
1477474154.890:   -732  87  11  708
1477474154.893:   -729  87  11  708
1477474154.895:   -731  87  11  708
1477474154.898:   -756  87  11  708
1477474154.913:   -792  87  11  708
1477474154.913:   -807  87  11  708
1477474154.913:   -794  87  11  708
1477474154.913:   -785  87  11  708
1477474154.913:   -825  87  11  708
1477474154.914:   -912  87  11  708
1477474154.914:   -992  87  11  708
1477474154.915:  -1016  87  11  708
1477474154.916:   -994  87  11  708
1477474154.917:   -985  87  11  708
1477474154.918:  -1034  87  11  708
1477474154.921:  -1126  87  11  708
1477474154.922:  -1209  87  11  708
1477474154.927:  -1253  87  11  708
1477474154.928:  -1278  87  11  708
1477474154.930:  -1317  87  11  708
1477474154.931:  -1379  87  11  708
1477474154.932:  -1442  87  11  708
1477474154.935:  -1481  87  11  708
1477474154.936:  -1489  87  11  708
1477474154.948:  -1470  87  11  708
1477474155.020:  -1424  87  11  708
1477474155.035:  -1344  87  11  708
1477474155.035:  -1235  87  11  708
1477474155.035:  -1120  87  11  708
1477474155.035:  -1025  87  11  708
1477474155.036:   -960  87  11  708
1477474155.036:   -912  87  11  708
1477474155.036:   -866  87  11  708
1477474155.036:   -819  87  11  708
1477474155.036:   -782  87  11  708
1477474155.036:   -762  87  11  708
1477474155.037:   -760  87  11  708
1477474155.037:   -764  87  11  708
1477474155.037:   -759  87  11  708
1477474155.037:   -736  87  11  708
1477474155.037:   -693  87  11  708
1477474155.037:   -639  87  11  708
1477474155.037:   -585  87  11  708
1477474155.037:   -546  87  11  708
1477474155.038:   -531  87  11  708
1477474155.038:   -538  87  11  708
1477474155.038:   -555  87  11  708
1477474155.038:   -573  87  11  708
1477474155.038:   -591  87  11  708
1477474155.038:   -611  87  11  708
1477474155.038:   -631  87  11  708
1477474155.038:   -643  87  11  708
1477474155.039:   -646  87  11  708
1477474155.039:   -645  87  11  708
1477474155.039:   -642  87  11  708
1477474155.039:   -634  87  11  708
1477474155.039:   -612  87  11  708
1477474155.039:   -588  87  11  708
1477474155.039:   -581  87  11  708
1477474155.040:   -591  87  11  708
1477474155.040:   -598  87  11  708
1477474155.040:   -606  87  11  708
1477474155.040:   -669  87  11  708
1477474155.040:   -861  87  11  708
1477474155.040:  -1186  87  11  708
1477474155.040:  -1538  87  11  708
1477474155.041:  -1783  87  11  708
1477474155.041:  -1861  87  11  708
1477474155.041:  -1807  87  11  708
1477474155.041:  -1674  87  11  708
1477474155.041:  -1444  87  11  708
1477474155.041:  -1048  87  11  708
1477474155.041:   -464  87  11  708
1477474155.042:    236  87  11  708
1477474155.042:    931  87  11  708
1477474155.042:   1531  87  11  708
1477474155.042:   2007  87  11  708
1477474155.042:   2327  87  11  708
1477474155.043:   2437  87  11  708
1477474155.049:   2302  87  11  708
1477474155.049:   1999  87  11  708
1477474155.051:   1718  87  11  708
1477474155.052:   1640  87  11  708
1477474155.054:   1777  87  11  708
1477474155.056:   1963  87  11  708
1477474155.058:   2010  87  11  708
1477474155.059:   1890  87  11  708
1477474155.063:   1746  87  11  708
1477474155.077:   1710  87  11  708
1477474155.077:   1727  87  11  708
1477474155.077:   1586  87  11  708
1477474155.078:   1130  87  11  708
1477474155.078:    423  87  11  708
1477474155.078:   -309  87  11  708
1477474155.078:   -873  87  11  708
1477474155.078:  -1230  87  11  708
1477474155.080:  -1447  87  11  708
1477474155.081:  -1574  87  11  708
1477474155.087:  -1609  87  11  708
1477474155.087:  -1551  87  11  708
1477474155.089:  -1439  87  11  708
1477474155.091:  -1333  87  11  708
1477474155.102:  -1260  87  11  708
1477474155.103:  -1209  87  11  708
1477474155.103:  -1175  87  11  708
1477474155.103:  -1173  87  11  708
1477474155.104:  -1216  87  11  708
1477474155.105:  -1290  87  11  708
1477474155.106:  -1362  87  11  708
1477474155.106:  -1406  87  11  708
1477474155.107:  -1415  87  11  708
1477474155.108:  -1391  87  11  708
1477474155.111:  -1342  87  11  708
1477474155.114:  -1289  87  11  708
1477474155.119:  -1264  87  11  708
1477474155.119:  -1290  87  11  708
1477474155.120:  -1362  87  11  708
1477474155.121:  -1439  87  11  708
1477474155.137:  -1475  87  11  708
1477474155.137:  -1458  87  11  708
1477474155.137:  -1414  87  11  708
1477474155.137:  -1378  87  11  708
1477474155.137:  -1368  87  11  708
1477474155.138:  -1371  87  11  708
1477474155.138:  -1368  87  11  708
1477474155.138:  -1357  87  11  708
1477474155.139:  -1354  87  11  708
1477474155.141:  -1365  87  11  708
1477474155.148:  -1376  87  11  708
1477474155.156:  -1368  87  11  708
1477474155.167:  -1333  87  11  708
1477474155.167:  -1290  87  11  708
1477474155.167:  -1262  87  11  708
1477474155.167:  -1262  87  11  708
1477474155.167:  -1285  87  11  708
1477474155.168:  -1316  87  11  708
1477474155.168:  -1339  87  11  708
1477474155.168:  -1352  87  11  708
1477474155.168:  -1359  87  11  708
1477474155.168:  -1370  87  11  708
1477474155.169:  -1381  87  11  708
1477474155.169:  -1378  87  11  708
1477474155.173:  -1359  87  11  708
1477474155.173:  -1339  87  11  708
1477474155.175:  -1340  87  11  708
1477474155.176:  -1362  87  11  708
1477474155.189:  -1379  87  11  708
1477474155.189:  -1374  87  11  708
1477474155.190:  -1361  87  11  708
1477474155.190:  -1373  87  11  708
1477474155.191:  -1417  87  11  708
1477474155.191:  -1459  87  11  708
1477474155.191:  -1471  87  11  708
1477474155.192:  -1456  87  11  708
1477474155.193:  -1450  87  11  708
1477474155.196:  -1471  87  11  708
1477474155.200:  -1501  87  11  708
1477474155.201:  -1510  87  11  708
1477474155.202:  -1498  87  11  708
1477474155.203:  -1487  87  11  708
1477474155.215:  -1496  87  11  708
1477474155.215:  -1519  87  11  708
1477474155.216:  -1536  87  11  708
1477474155.216:  -1544  87  11  708
1477474155.217:  -1558  87  11  708
1477474155.218:  -1590  87  11  708
1477474155.218:  -1638  87  11  708
1477474155.218:  -1683  87  11  708
1477474155.224:  -1713  87  11  708
1477474155.224:  -1735  87  11  708
1477474155.228:  -1763  87  11  708
1477474155.228:  -1799  87  11  708
1477474155.232:  -1826  87  11  708
1477474155.232:  -1831  87  11  708
1477474155.233:  -1818  87  11  708
1477474155.235:  -1806  87  11  708
1477474155.238:  -1809  87  11  708
1477474155.241:  -1818  87  11  708
1477474155.248:  -1823  87  11  708
1477474155.249:  -1835  87  11  708
1477474155.249:  -1881  87  11  708
1477474155.249:  -1965  87  11  708
1477474155.250:  -2052  87  11  708
1477474155.251:  -2100  87  11  708
1477474155.255:  -2109  87  11  708
1477474155.256:  -2120  87  11  708
1477474155.267:  -2169  87  11  708
1477474155.268:  -2240  87  11  708
1477474155.268:  -2286  87  11  708
1477474155.269:  -2288  87  11  708
1477474155.270:  -2272  87  11  708
1477474155.272:  -2278  87  11  708
1477474155.286:  -2313  87  11  708
1477474155.286:  -2358  87  11  708
1477474155.286:  -2395  87  11  708
1477474155.287:  -2434  87  11  708
1477474155.287:  -2485  87  11  708
1477474155.288:  -2538  87  11  708
1477474155.288:  -2572  87  11  708
1477474155.288:  -2588  87  11  708
1477474155.288:  -2609  87  11  708
1477474155.289:  -2651  87  11  708
1477474155.297:  -2701  87  11  708
1477474155.297:  -2726  87  11  708
1477474155.306:  -2718  87  11  708
1477474155.306:  -2696  87  11  708
1477474155.307:  -2689  89  11  696
1477474155.307:  -2706  89  11  696
1477474155.307:  -2732  89  11  696
1477474155.307:  -2747  89  11  696
1477474155.308:  -2742  89  11  696
1477474155.308:  -2719  89  11  696
1477474155.308:  -2685  89  11  696
1477474155.309:  -2647  89  11  696
1477474155.310:  -2611  89  11  696
1477474155.315:  -2575  89  11  696
1477474155.315:  -2528  89  11  696
1477474155.317:  -2458  89  11  696
1477474155.318:  -2369  89  11  696
1477474155.321:  -2280  89  11  696
1477474155.337:  -2206  89  11  696
1477474155.337:  -2144  89  11  696
1477474155.337:  -2071  89  11  696
1477474155.337:  -1968  89  11  696
1477474155.338:  -1844  89  11  696
1477474155.338:  -1726  89  11  696
1477474155.338:  -1628  89  11  696
1477474155.338:  -1541  89  11  696
1477474155.339:  -1438  89  11  696
1477474155.343:  -1315  89  11  696
1477474155.343:  -1192  89  11  696
1477474155.344:  -1092  89  11  696
1477474155.345:  -1011  89  11  696
1477474155.349:   -926  89  11  696
1477474155.351:   -830  89  11  696
1477474155.352:   -745  89  11  696
1477474155.356:   -695  89  11  696
1477474155.357:   -675  89  11  696
1477474155.358:   -652  89  11  696
1477474155.359:   -606  89  11  696
1477474155.362:   -554  89  11  696
1477474155.364:   -524  89  11  696
1477474155.365:   -526  89  11  696
1477474155.370:   -537  89  11  696
1477474155.381:   -530  89  11  696
1477474155.381:   -494  89  11  696
1477474155.382:   -447  89  11  696
1477474155.382:   -407  89  11  696
1477474155.382:   -384  89  11  696
1477474155.383:   -376  89  11  696
1477474155.384:   -372  89  11  696
1477474155.385:   -367  89  11  696
1477474155.387:   -362  89  11  696
1477474155.388:   -375  89  11  696
1477474155.389:   -411  89  11  696
1477474155.391:   -451  89  11  696
1477474155.401:   -468  89  11  696
1477474155.401:   -459  89  11  696
1477474155.402:   -453  89  11  696
1477474155.402:   -468  89  11  696
1477474155.402:   -486  89  11  696
1477474155.407:   -462  89  11  696
1477474155.407:   -393  89  11  696
1477474155.408:   -330  89  11  696
1477474155.411:   -325  89  11  696
1477474155.411:   -368  89  11  696
1477474155.413:   -402  89  11  696
1477474155.414:   -396  89  11  696
1477474155.417:   -382  89  11  696
1477474155.419:   -408  89  11  696
1477474155.420:   -473  89  11  696
1477474155.423:   -529  89  11  696
1477474155.424:   -543  89  11  696
1477474155.428:   -538  89  11  696
1477474155.429:   -547  89  11  696
1477474155.431:   -567  89  11  696
1477474155.432:   -563  89  11  696
1477474155.439:   -523  89  11  696
1477474155.459:   -480  89  11  696
1477474155.460:   -470  89  11  696
1477474155.460:   -484  89  11  696
1477474155.461:   -488  89  11  696
1477474155.461:   -467  89  11  696
1477474155.462:   -445  89  11  696
1477474155.462:   -450  89  11  696
1477474155.463:   -479  89  11  696
1477474155.463:   -508  89  11  696
1477474155.464:   -521  89  11  696
1477474155.464:   -526  89  11  696
1477474155.466:   -542  89  11  696
1477474155.467:   -567  89  11  696
1477474155.467:   -589  89  11  696
1477474155.468:   -599  89  11  696
